3498.84008789063  6.158388E-16
3501.68431186677  6.616850E-16
3504.5285358429  1.572143E-16
3507.37275981904  2.508397E-16
3510.21698379517  2.487184E-16
3513.06120777131  1.585486E-16
3515.90543174745  4.649434E-16
3518.74965572358  4.944250E-16
3521.59387969972  9.888777E-17
3524.43810367585  2.459172E-16
3527.28232765199  5.036725E-16
3530.12655162812  3.262238E-17
3532.97077560426  1.610919E-16
3535.81499958039  6.461725E-16
3538.65922355653  2.468369E-16
3541.50344753266  3.568560E-16
3544.3476715088  2.120376E-16
3547.19189548493  1.403514E-16
3550.03611946107  3.169272E-16
3552.8803434372  1.718098E-16
3555.72456741334  2.626542E-16
3558.56879138947  3.548331E-16
3561.41301536561  2.771178E-16
3564.25723934174  3.568428E-16
3567.10146331788  3.063370E-16
3569.94568729402  4.536586E-16
3572.78991127015  2.747452E-16
3575.63413524629  1.330380E-16
3578.47835922242  4.037849E-16
3581.32258319856  2.986189E-16
3584.16680717469  1.103422E-16
3587.01103115083  1.349586E-16
3589.85525512696  3.213035E-17
3592.6994791031  2.383274E-16
3595.54370307923  5.193327E-16
3598.38792705537  5.945547E-16
3601.2321510315  2.936987E-16
3604.07637500764  3.781657E-16
3606.92059898377  9.337495E-17
3609.76482295991  1.344232E-16
3612.60904693604  3.899264E-16
3615.45327091218  3.255767E-16
3618.29749488831  1.709584E-16
3621.14171886445  2.567646E-16
3623.98594284059  1.418406E-16
3626.83016681672  3.096404E-16
3629.67439079286  -1.586711E-16
3632.51861476899  3.854543E-16
3635.36283874513  1.167580E-16
3638.20706272126  3.164462E-16
3641.0512866974  4.823439E-16
3643.89551067353  3.749498E-16
3646.73973464967  2.149318E-16
3649.5839586258  4.725306E-16
3652.42818260194  2.242400E-16
3655.27240657807  3.218609E-16
3658.11663055421  2.886381E-17
3660.96085453034  3.842789E-16
3663.80507850648  3.217212E-16
3666.64930248261  1.028206E-17
3669.49352645875  2.586466E-16
3672.33775043488  2.877551E-16
3675.18197441102  4.170476E-16
3678.02619838716  2.942617E-16
3680.87042236329  3.102484E-16
3683.71464633943  2.412742E-16
3686.55887031556  2.771071E-16
3689.4030942917  2.248032E-16
3692.24731826783  2.356298E-16
3695.09154224397  4.760732E-16
3697.9357662201  3.754643E-16
3700.77999019624  3.406179E-16
3703.62421417237  4.072026E-16
3706.46843814851  4.193332E-16
3709.31266212464  3.442379E-16
3712.15688610078  3.807581E-16
3715.00111007691  3.096266E-16
3717.84533405305  5.415228E-16
3720.68955802918  4.135036E-16
3723.53378200532  4.029780E-16
3726.37800598145  4.778266E-16
3729.22222995759  4.412098E-16
3732.06645393372  3.946411E-16
3734.91067790986  4.264726E-16
3737.754901886  2.435187E-16
3740.59912586213  5.046318E-16
3743.44334983827  2.809323E-16
3746.2875738144  5.705169E-16
3749.13179779054  3.487557E-16
3751.97602176667  3.193431E-16
3754.82024574281  4.918449E-16
3757.66446971894  4.221065E-16
3760.50869369508  4.911353E-16
3763.35291767121  5.140357E-16
3766.19714164735  4.718692E-16
3769.04136562348  4.266538E-16
3771.88558959962  5.118076E-16
3774.72981357575  4.844227E-16
3777.57403755189  4.872231E-16
3780.41826152802  5.494985E-16
3783.26248550416  4.278685E-16
3786.10670948029  4.090732E-16
3788.95093345643  4.133950E-16
3791.79515743256  5.047531E-16
3794.6393814087  4.050317E-16
3797.48360538484  4.544898E-16
3800.32782936097  3.046583E-16
3803.17205333711  3.633786E-16
3806.01627731324  3.571961E-16
3808.86050128938  4.106726E-16
3811.70472526551  3.784617E-16
3814.54894924165  3.783545E-16
3817.39317321778  4.471556E-16
3820.23739719392  4.219208E-16
3823.08162117005  3.157597E-16
3825.92584514619  3.610074E-16
3828.77006912232  2.802548E-16
3831.61429309846  2.782550E-16
3834.45851707459  2.838533E-16
3837.30274105073  2.991039E-16
3840.14696502686  4.416398E-16
3842.991189003  3.099823E-16
3845.83541297913  3.052458E-16
3848.67963695527  3.471737E-16
3851.52386093141  3.676963E-16
3854.36808490754  3.207723E-16
3857.21230888368  2.688899E-16
3860.05653285981  3.567837E-16
3862.90075683595  2.463267E-16
3865.74498081208  3.021729E-16
3868.58920478822  2.912725E-16
3871.43342876435  3.162127E-16
3874.27765274049  2.072129E-16
3877.12187671662  2.463654E-16
3879.96610069276  2.370083E-16
3882.81032466889  2.844412E-16
3885.65454864503  2.236460E-16
3888.49877262116  2.308326E-16
3891.3429965973  2.351365E-16
3894.18722057343  2.233594E-16
3897.03144454957  2.725810E-16
3899.8756685257  1.977533E-16
3902.71989250184  1.665015E-16
3905.56411647797  2.117399E-16
3908.40834045411  1.943865E-16
3911.25256443025  2.089104E-16
3914.09678840638  2.291156E-16
3916.94101238252  2.192565E-16
3919.78523635865  1.507570E-16
3922.62946033479  1.922205E-16
3925.47368431092  3.469140E-17
3928.31790828706  1.819416E-16
3931.16213226319  1.066388E-16
3934.00635623933  1.448664E-16
3936.85058021546  1.377963E-16
3939.6948041916  1.058196E-16
3942.53902816773  1.273329E-16
3945.38325214387  9.037130E-17
3948.22747612  1.559401E-16
3951.07170009614  1.330584E-16
3953.91592407227  9.972115E-17
3956.76014804841  1.165865E-16
3959.60437202454  7.430912E-17
3962.44859600068  9.639375E-17
3965.29281997682  1.465983E-16
3968.13704395295  1.210070E-16
3970.98126792909  1.238392E-16
3973.82549190522  1.323390E-16
3976.66971588136  9.489630E-17
3979.51393985749  9.486889E-17
3982.35816383363  1.076614E-16
3985.20238780976  6.986586E-17
3988.0466117859  1.191386E-16
3990.89083576203  -4.122812E-17
3993.73505973817  1.385634E-16
3996.5792837143  9.083891E-17
3999.42350769044  1.596106E-16
4002.26773166657  1.427680E-16
4005.11195564271  1.088939E-16
4007.95617961884  5.058411E-17
4010.80040359498  1.194201E-16
4013.64462757111  6.022640E-17
4016.48885154725  5.980240E-17
4019.33307552338  1.201916E-16
4022.17729949952  8.871812E-17
4025.02152347566  1.395384E-16
4027.86574745179  1.360978E-16
4030.70997142793  8.519432E-17
4033.55419540406  1.037707E-16
4036.3984193802  1.963899E-16
4039.24264335633  1.158412E-16
4042.08686733247  6.566375E-17
4044.9310913086  1.586390E-16
4047.77531528474  7.210563E-17
4050.61953926087  1.267043E-16
4053.46376323701  1.151215E-16
4056.30798721314  1.693400E-16
4059.15221118928  1.360747E-16
4061.99643516541  1.393611E-16
4064.84065914155  1.893809E-16
4067.68488311768  1.543949E-16
4070.52910709382  1.605821E-16
4073.37333106996  1.808264E-16
4076.21755504609  2.276006E-16
4079.06177902223  1.807316E-16
4081.90600299836  2.248270E-16
4084.7502269745  1.380105E-16
4087.59445095063  2.504853E-16
4090.43867492677  1.943569E-16
4093.2828989029  2.005248E-16
4096.12712287904  1.704986E-16
4098.97134685517  2.122989E-16
4101.81557083131  1.946760E-16
4104.65979480744  1.700911E-16
4107.50401878358  2.352280E-16
4110.34824275971  1.977436E-16
4113.19246673585  3.144064E-16
4116.03669071198  2.623671E-16
4118.88091468812  2.489500E-16
4121.72513866426  2.606401E-16
4124.56936264039  2.863932E-16
4127.41358661653  1.944552E-16
4130.25781059266  3.077027E-16
4133.1020345688  2.274892E-16
4135.94625854493  2.679416E-16
4138.79048252107  2.855983E-16
4141.6347064972  3.023359E-16
4144.47893047334  2.804224E-16
4147.32315444947  3.047615E-16
4150.16737842561  2.971434E-16
4153.01160240174  3.063908E-16
4155.85582637788  3.437162E-16
4158.70005035401  3.210605E-16
4161.54427433015  3.312359E-16
4164.38849830628  3.807782E-16
4167.23272228242  4.199822E-16
4170.07694625855  3.685036E-16
4172.92117023469  3.646384E-16
4175.76539421082  3.553023E-16
4178.60961818696  3.720272E-16
4181.4538421631  3.957734E-16
4184.29806613923  3.444020E-16
4187.14229011537  3.645220E-16
4189.9865140915  3.878190E-16
4192.83073806764  3.534578E-16
4195.67496204377  3.328444E-16
4198.51918601991  3.443476E-16
4201.36340999604  4.295914E-16
4204.20763397218  3.764750E-16
4207.05185794831  3.788625E-16
4209.89608192445  3.841366E-16
4212.74030590058  4.220091E-16
4215.58452987672  3.822110E-16
4218.42875385285  3.798433E-16
4221.27297782899  3.712959E-16
4224.11720180512  3.556757E-16
4226.96142578126  3.363595E-16
4229.80564975739  3.689946E-16
4232.64987373353  3.656985E-16
4235.49409770966  3.003973E-16
4238.3383216858  3.342095E-16
4241.18254566194  3.341504E-16
4244.02676963807  3.049387E-16
4246.87099361421  3.228570E-16
4249.71521759034  3.261283E-16
4252.55944156648  3.552595E-16
4255.40366554261  3.191539E-16
4258.24788951875  3.233608E-16
4261.09211349488  3.163585E-16
4263.93633747102  2.935166E-16
4266.78056144715  2.396567E-16
4269.62478542329  2.887450E-16
4272.46900939942  3.274546E-16
4275.31323337556  2.959708E-16
4278.15745735169  3.238280E-16
4281.00168132783  2.471506E-16
4283.84590530396  3.038082E-16
4286.6901292801  2.946208E-16
4289.53435325623  2.913352E-16
4292.37857723237  2.734289E-16
4295.22280120851  2.979144E-16
4298.06702518464  2.943977E-16
4300.91124916078  2.917995E-16
4303.75547313691  2.614723E-16
4306.59969711305  2.582809E-16
4309.44392108918  3.046501E-16
4312.28814506532  2.569831E-16
4315.13236904145  2.382059E-16
4317.97659301759  3.042798E-16
4320.82081699372  2.868256E-16
4323.66504096986  2.827592E-16
4326.50926494599  2.522489E-16
4329.35348892213  3.165399E-16
4332.19771289826  2.935671E-16
4335.0419368744  3.002255E-16
4337.88616085053  2.985643E-16
4340.73038482667  2.857133E-16
4343.5746088028  3.326740E-16
4346.41883277894  2.845343E-16
4349.26305675508  3.231953E-16
4352.10728073121  3.301031E-16
4354.95150470735  3.232617E-16
4357.79572868348  3.195350E-16
4360.63995265962  3.372965E-16
4363.48417663575  3.284243E-16
4366.32840061189  3.361968E-16
4369.17262458802  3.239800E-16
4372.01684856416  3.492449E-16
4374.86107254029  3.704108E-16
4377.70529651643  3.858255E-16
4380.54952049256  3.496671E-16
4383.3937444687  3.737225E-16
4386.23796844483  3.338345E-16
4389.08219242097  3.617029E-16
4391.9264163971  3.802111E-16
4394.77064037324  3.160866E-16
4397.61486434937  3.469551E-16
4400.45908832551  3.109952E-16
4403.30331230164  3.252309E-16
4406.14753627778  3.499437E-16
4408.99176025392  3.347143E-16
4411.83598423005  3.937556E-16
4414.68020820619  3.346310E-16
4417.52443218232  3.238785E-16
4420.36865615846  3.629535E-16
4423.21288013459  3.451775E-16
4426.05710411073  3.060780E-16
4428.90132808686  3.119322E-16
4431.745552063  3.333576E-16
4434.58977603913  3.248132E-16
4437.43400001527  3.191395E-16
4440.2782239914  3.250410E-16
4443.12244796754  3.196103E-16
4445.96667194367  3.155493E-16
4448.81089591981  2.932240E-16
4451.65511989594  3.086122E-16
4454.49934387208  3.142156E-16
4457.34356784821  2.696119E-16
4460.18779182435  2.874372E-16
4463.03201580048  3.070704E-16
4465.87623977662  2.820409E-16
4468.72046375276  2.772071E-16
4471.56468772889  3.155242E-16
4474.40891170503  2.691905E-16
4477.25313568116  2.559899E-16
4480.0973596573  2.327294E-16
4482.94158363343  2.673495E-16
4485.78580760957  2.678695E-16
4488.6300315857  2.705519E-16
4491.47425556184  2.486347E-16
4494.31847953797  2.617448E-16
4497.16270351411  2.187133E-16
4500.00692749024  2.454377E-16
4502.85115146638  2.683322E-16
4505.69537544251  2.429733E-16
4508.53959941865  2.663425E-16
4511.38382339478  2.573188E-16
4514.22804737092  2.487407E-16
4517.07227134705  2.366745E-16
4519.91649532319  2.385865E-16
4522.76071929933  2.661717E-16
4525.60494327546  2.298242E-16
4528.4491672516  2.731293E-16
4531.29339122773  2.371766E-16
4534.13761520387  2.161977E-16
4536.98183918  2.435628E-16
4539.82606315614  2.439439E-16
4542.67028713227  2.036464E-16
4545.51451110841  2.188556E-16
4548.35873508454  2.100088E-16
4551.20295906068  2.072576E-16
4554.04718303681  2.409111E-16
4556.89140701295  1.981642E-16
4559.73563098908  1.778248E-16
4562.57985496522  1.872418E-16
4565.42407894135  1.887152E-16
4568.26830291749  1.529800E-16
4571.11252689362  1.598625E-16
4573.95675086976  1.966052E-16
4576.80097484589  1.976006E-16
4579.64519882203  1.756650E-16
4582.48942279817  1.496452E-16
4585.3336467743  1.400494E-16
4588.17787075044  1.593685E-16
4591.02209472657  1.477320E-16
4593.86631870271  1.380126E-16
4596.71054267884  1.367825E-16
4599.55476665498  1.614990E-16
4602.39899063111  1.585335E-16
4605.24321460725  1.200781E-16
4608.08743858338  1.268150E-16
4610.93166255952  1.273613E-16
4613.77588653565  1.293693E-16
4616.62011051179  1.207909E-16
4619.46433448792  1.094112E-16
4622.30855846406  1.114233E-16
4625.15278244019  1.310007E-16
4627.99700641633  1.253294E-16
4630.84123039246  1.542723E-16
4633.6854543686  1.231995E-16
4636.52967834473  1.341657E-16
4639.37390232087  1.122022E-16
4642.218126297  1.287474E-16
4645.06235027314  1.518187E-16
4647.90657424928  1.210677E-16
4650.75079822541  1.481806E-16
4653.59502220155  1.556859E-16
4656.43924617768  1.431729E-16
4659.28347015382  1.484082E-16
4662.12769412995  1.541593E-16
4664.97191810609  1.267110E-16
4667.81614208222  1.579797E-16
4670.66036605836  1.301153E-16
4673.50459003449  1.219108E-16
4676.34881401063  1.662933E-16
4679.19303798676  1.181541E-16
4682.0372619629  1.325636E-16
4684.88148593903  1.743120E-16
4687.72570991517  1.623565E-16
4690.56993389131  1.544827E-16
4693.41415786744  1.508224E-16
4696.25838184358  1.639214E-16
4699.10260581971  1.777105E-16
4701.94682979585  1.595724E-16
4704.79105377198  1.369161E-16
4707.63527774812  1.853542E-16
4710.47950172425  1.684268E-16
4713.32372570039  1.853625E-16
4716.16794967652  1.811899E-16
4719.01217365266  2.079331E-16
4721.85639762879  1.873290E-16
4724.70062160493  1.562348E-16
4727.54484558106  1.657226E-16
4730.3890695572  1.796759E-16
4733.23329353333  1.493776E-16
4736.07751750947  1.754831E-16
4738.92174148561  1.647942E-16
4741.76596546174  1.753520E-16
4744.61018943788  1.646711E-16
4747.45441341401  1.655386E-16
4750.29863739015  1.614377E-16
4753.14286136628  1.518064E-16
4755.98708534242  1.653795E-16
4758.83130931855  1.279528E-16
4761.67553329469  1.691960E-16
4764.51975727082  1.447921E-16
4767.36398124696  1.576881E-16
4770.20820522309  1.550813E-16
4773.05242919923  1.696056E-16
4775.89665317536  1.532937E-16
4778.7408771515  1.646948E-16
4781.58510112763  1.738446E-16
4784.42932510377  1.614708E-16
4787.2735490799  1.636500E-16
4790.11777305604  1.819701E-16
4792.96199703217  1.717674E-16
4795.80622100831  1.901312E-16
4798.65044498444  1.746731E-16
4801.49466896058  2.017702E-16
4804.33889293672  1.815748E-16
4807.18311691285  1.856515E-16
4810.02734088899  1.984372E-16
4812.87156486512  1.887186E-16
4815.71578884126  1.934202E-16
4818.56001281739  1.830969E-16
4821.40423679353  2.054235E-16
4824.24846076966  1.880683E-16
4827.0926847458  2.081466E-16
4829.93690872193  1.971370E-16
4832.78113269807  2.034842E-16
4835.6253566742  1.986883E-16
4838.46958065034  1.996892E-16
4841.31380462647  1.936948E-16
4844.15802860261  2.145159E-16
4847.00225257874  2.144748E-16
4849.84647655488  2.053261E-16
4852.69070053102  1.899449E-16
4855.53492450715  2.026447E-16
4858.37914848329  1.910986E-16
4861.22337245942  1.864837E-16
4864.06759643556  2.081245E-16
4866.91182041169  2.038861E-16
4869.75604438783  2.029604E-16
4872.60026836396  1.965476E-16
4875.4444923401  1.700235E-16
4878.28871631623  2.109000E-16
4881.13294029237  1.974500E-16
4883.9771642685  1.933012E-16
4886.82138824464  2.014021E-16
4889.66561222077  1.710354E-16
4892.50983619691  1.990687E-16
4895.35406017304  2.292918E-16
4898.19828414918  1.978231E-16
4901.04250812531  1.717902E-16
4903.88673210145  1.975937E-16
4906.73095607759  1.883286E-16
4909.57518005372  1.718557E-16
4912.41940402986  1.934440E-16
4915.26362800599  2.038225E-16
4918.10785198213  1.774683E-16
4920.95207595826  1.879581E-16
4923.7962999344  1.739400E-16
4926.64052391053  1.812786E-16
4929.48474788667  1.919625E-16
4932.3289718628  1.782097E-16
4935.17319583894  1.682720E-16
4938.01741981507  1.751790E-16
4940.86164379121  1.668016E-16
4943.70586776734  1.652455E-16
4946.55009174348  1.777047E-16
4949.39431571961  1.793789E-16
4952.23853969575  1.652308E-16
4955.08276367188  1.628150E-16
4957.92698764802  1.448969E-16
4960.77121162415  1.532070E-16
4963.61543560029  1.744635E-16
4966.45965957642  1.648844E-16
4969.30388355256  1.588775E-16
4972.14810752869  1.564833E-16
4974.99233150483  1.680215E-16
4977.83655548097  1.410250E-16
4980.6807794571  1.413087E-16
4983.52500343324  1.450491E-16
4986.36922740937  1.636610E-16
4989.21345138551  1.557335E-16
4992.05767536164  1.184710E-16
4994.90189933778  1.280140E-16
4997.74612331391  1.417510E-16
5000.59034729005  1.495325E-16
5003.43457126618  1.444686E-16
5006.27879524232  1.438114E-16
5009.12301921846  1.248495E-16
5011.96724319459  1.479629E-16
5014.81146717073  1.418889E-16
5017.65569114686  1.288368E-16
5020.499915123  1.237521E-16
5023.34413909913  1.275216E-16
5026.18836307527  9.778918E-17
5029.0325870514  1.131119E-16
5031.87681102754  1.066163E-16
5034.72103500367  1.302587E-16
5037.56525897981  1.259884E-16
5040.40948295594  1.161042E-16
5043.25370693208  1.213539E-16
5046.09793090821  1.148848E-16
5048.94215488435  1.049212E-16
5051.78637886048  1.269948E-16
5054.63060283662  1.195989E-16
5057.47482681275  1.162085E-16
5060.31905078889  1.302384E-16
5063.16327476502  1.204310E-16
5066.00749874116  1.089482E-16
5068.85172271729  1.274613E-16
5071.69594669343  1.271230E-16
5074.54017066956  1.386946E-16
5077.3843946457  1.348865E-16
5080.22861862184  1.539098E-16
5083.07284259797  1.071803E-16
5085.91706657411  1.263058E-16
5088.76129055024  1.150212E-16
5091.60551452638  7.878732E-17
5094.44973850251  1.295105E-16
5097.29396247865  1.040953E-16
5100.13818645478  1.046774E-16
5102.98241043092  1.046425E-16
5105.82663440705  9.851879E-17
5108.67085838319  1.307887E-16
5111.51508235932  1.101000E-16
5114.35930633546  1.141254E-16
5117.20353031159  1.134299E-16
5120.04775428773  1.095661E-16
5122.89197826386  9.929647E-17
5125.73620224  9.655865E-17
5128.58042621613  9.037750E-17
5131.42465019227  1.107054E-16
5134.26887416841  1.112522E-16
5137.11309814454  1.065206E-16
5139.95732212068  1.209132E-16
5142.80154609681  1.021154E-16
5145.64577007295  1.268096E-16
5148.48999404908  1.070937E-16
5151.33421802522  1.216528E-16
5154.17844200135  1.003931E-16
5157.02266597749  1.257999E-16
5159.86688995362  1.149059E-16
5162.71111392976  1.053596E-16
5165.55533790589  1.077601E-16
5168.39956188203  1.158813E-16
5171.24378585816  8.881299E-17
5174.0880098343  1.147493E-16
5176.93223381043  1.028475E-16
5179.77645778657  8.569432E-17
5182.6206817627  1.087189E-16
5185.46490573884  8.574257E-17
5188.30912971498  1.040721E-16
5191.15335369111  9.744470E-17
5193.99757766725  1.059943E-16
5196.84180164338  1.005060E-16
5199.68602561952  8.071955E-17
5202.53024959565  8.726239E-17
5205.37447357179  1.059363E-16
5208.21869754792  1.041425E-16
5211.06292152406  5.589097E-17
5213.90714550019  1.040213E-16
5216.75136947633  5.208040E-17
5219.59559345246  5.248190E-17
5222.4398174286  7.314940E-17
5225.28404140473  7.563142E-17
5228.12826538087  8.533162E-17
5230.972489357  7.652641E-17
5233.81671333314  1.006693E-16
5236.66093730927  8.149262E-17
5239.50516128541  7.597181E-17
5242.34938526154  8.586452E-17
5245.19360923768  1.093153E-16
5248.03783321382  6.745225E-17
5250.88205718995  7.593734E-17
5253.72628116609  9.796523E-17
5256.57050514222  8.313998E-17
5259.41472911836  7.423730E-17
5262.25895309449  6.945014E-17
5265.10317707063  7.603740E-17
5267.94740104676  6.775675E-17
5270.7916250229  8.361320E-17
5273.63584899903  9.261949E-17
5276.48007297517  8.981411E-17
5279.3242969513  9.100229E-17
5282.16852092744  7.144123E-17
5285.01274490357  7.310354E-17
5287.85696887971  7.996992E-17
5290.70119285584  5.194388E-17
5293.54541683198  8.464693E-17
5296.38964080811  1.029493E-16
5299.23386478425  8.262253E-17
5302.07808876038  8.792032E-17
5304.92231273652  7.711171E-17
5307.76653671266  8.989743E-17
5310.61076068879  1.040443E-16
5313.45498466493  8.829975E-17
5316.29920864106  8.392608E-17
5319.1434326172  8.624844E-17
5321.98765659333  9.496189E-17
5324.83188056947  1.070288E-16
5327.6761045456  8.852822E-17
5330.52032852174  8.944075E-17
5333.36455249787  9.716399E-17
5336.20877647401  1.045708E-16
5339.05300045014  9.185939E-17
5341.89722442628  7.392532E-17
5344.74144840241  7.919935E-17
5347.58567237855  1.093159E-16
5350.42989635469  8.503031E-17
5353.27412033082  1.051127E-16
5356.11834430696  8.272788E-17
5358.96256828309  9.299910E-17
5361.80679225923  9.800248E-17
5364.65101623536  9.987759E-17
5367.4952402115  1.014153E-16
5370.33946418763  8.951017E-17
5373.18368816377  7.209150E-17
5376.0279121399  9.691593E-17
5378.87213611604  9.214096E-17
5381.71636009217  8.098029E-17
5384.56058406831  8.712326E-17
5387.40480804444  1.023563E-16
5390.24903202058  9.762852E-17
5393.09325599671  1.038569E-16
5395.93747997285  9.048821E-17
5398.78170394898  9.359133E-17
5401.62592792512  1.024326E-16
5404.47015190125  1.065330E-16
5407.31437587739  1.009638E-16
5410.15859985352  1.198060E-16
5413.00282382966  1.063741E-16
5415.8470478058  1.069112E-16
5418.69127178193  9.233523E-17
5421.53549575807  1.000216E-16
5424.3797197342  9.665150E-17
5427.22394371034  8.850274E-17
5430.06816768647  1.104044E-16
5432.91239166261  1.007194E-16
5435.75661563874  9.094470E-17
5438.60083961488  1.245141E-16
5441.44506359101  1.219649E-16
5444.28928756715  9.608464E-17
5447.13351154328  1.088208E-16
5449.97773551942  1.265100E-16
5452.82195949555  9.884929E-17
5455.66618347169  1.299991E-16
5458.51040744782  1.103799E-16
5461.35463142396  1.237468E-16
5464.19885540009  1.481929E-16
5467.04307937623  1.230378E-16
5469.88730335236  1.284239E-16
5472.7315273285  1.383786E-16
5475.57575130464  1.155268E-16
5478.41997528077  1.121934E-16
5481.26419925691  1.234630E-16
5484.10842323304  1.255202E-16
5486.95264720918  1.333001E-16
5489.79687118531  1.162230E-16
5492.64109516145  1.228199E-16
5495.48531913758  1.175930E-16
5498.32954311372  1.156518E-16
5501.17376708985  1.414424E-16
5504.01799106599  1.369642E-16
5506.86221504212  1.013326E-16
5509.70643901826  1.264963E-16
5512.55066299439  1.364739E-16
5515.39488697053  1.312768E-16
5518.23911094666  1.300256E-16
5521.0833349228  1.134790E-16
5523.92755889894  1.168731E-16
5526.77178287507  9.687538E-17
5529.61600685121  1.265325E-16
5532.46023082734  1.006071E-16
5535.30445480348  1.071552E-16
5538.14867877961  1.115509E-16
5540.99290275575  1.242620E-16
5543.83712673188  1.157701E-16
5546.68135070802  1.154477E-16
5549.52557468415  1.202396E-16
5552.36979866029  1.341027E-16
5555.21402263642  1.205680E-16
5558.05824661256  1.095245E-16
5560.90247058869  1.014914E-16
5563.74669456483  1.140099E-16
5566.59091854096  1.136160E-16
5569.4351425171  1.313474E-16
5572.27936649323  1.138067E-16
5575.12359046937  2.026725E-16
5577.96781444551  1.393033E-16
5580.81203842164  9.737910E-17
5583.65626239778  1.666327E-16
5586.50048637391  1.204396E-16
5589.34471035005  9.963361E-17
5592.18893432618  1.337319E-16
5595.03315830232  9.056198E-17
5597.87738227845  1.185067E-16
5600.72160625459  1.118409E-16
5603.56583023072  9.274350E-17
5606.41005420686  1.059353E-16
5609.25427818299  1.247769E-16
5612.09850215913  1.168794E-16
5614.94272613526  9.894380E-17
5617.7869501114  9.337247E-17
5620.63117408753  1.055693E-16
5623.47539806367  9.655159E-17
5626.3196220398  8.313898E-17
5629.16384601594  1.122206E-16
5632.00806999207  9.435851E-17
5634.85229396821  9.619240E-17
5637.69651794434  8.994863E-17
5640.54074192048  9.390093E-17
5643.38496589662  7.565131E-17
5646.22918987275  9.754661E-17
5649.07341384889  7.815069E-17
5651.91763782502  5.681299E-17
5654.76186180116  7.173919E-17
5657.60608577729  8.475066E-17
5660.45030975343  9.422557E-17
5663.29453372956  6.154522E-17
5666.1387577057  7.786747E-17
5668.98298168183  8.691103E-17
5671.82720565797  6.615202E-17
5674.6714296341  8.354659E-17
5677.51565361024  8.614539E-17
5680.35987758637  7.490994E-17
5683.20410156251  8.390165E-17
5686.04832553864  6.683419E-17
5688.89254951478  6.523780E-17
5691.73677349091  7.892450E-17
5694.58099746705  6.699377E-17
5697.42522144318  7.483948E-17
5700.26944541932  9.740785E-17
5703.11366939546  9.331904E-17
5705.95789337159  7.713609E-17
5708.80211734773  7.070158E-17
5711.64634132386  8.346763E-17
5714.4905653  9.937568E-17
5717.33478927613  8.411648E-17
5720.17901325227  7.055448E-17
5723.0232372284  9.243704E-17
5725.86746120454  9.887062E-17
5728.71168518067  6.690435E-17
5731.55590915681  6.849729E-17
5734.40013313294  7.710441E-17
5737.24435710908  7.125948E-17
5740.08858108522  7.675842E-17
5742.93280506135  8.452021E-17
5745.77702903749  6.591379E-17
5748.62125301362  7.833694E-17
5751.46547698976  8.513332E-17
5754.30970096589  9.463347E-17
5757.15392494203  7.944679E-17
5759.99814891816  9.307716E-17
5762.8423728943  1.056184E-16
5765.68659687043  8.822581E-17
5768.53082084657  7.738486E-17
5771.3750448227  9.518586E-17
5774.21926879884  9.587738E-17
5777.06349277497  7.973353E-17
5779.90771675111  9.856419E-17
5782.75194072724  9.529047E-17
5785.59616470338  9.433414E-17
5788.44038867951  9.788053E-17
5791.28461265565  8.412023E-17
5794.12883663178  7.476997E-17
5796.97306060792  8.727563E-17
5799.81728458406  6.371318E-17
5802.66150856019  7.495825E-17
5805.50573253633  7.262186E-17
5808.34995651246  6.515008E-17
5811.1941804886  8.894270E-17
5814.03840446473  7.780341E-17
5816.88262844087  8.317516E-17
5819.726852417  9.111430E-17
5822.57107639314  6.608375E-17
5825.41530036927  8.122521E-17
5828.25952434541  5.528848E-17
5831.10374832154  7.161899E-17
5833.94797229768  6.868758E-17
5836.79219627381  5.929393E-17
5839.63642024995  7.469923E-17
5842.48064422608  6.889715E-17
5845.32486820222  6.739965E-17
5848.16909217836  8.665931E-17
5851.01331615449  6.254912E-17
5853.85754013063  6.091516E-17
5856.70176410676  7.671120E-17
5859.5459880829  7.847400E-17
5862.39021205903  5.692780E-17
5865.23443603517  6.560751E-17
5868.0786600113  4.169126E-17
5870.92288398744  4.991023E-17
5873.76710796357  5.633781E-17
5876.61133193971  4.843765E-17
5879.45555591584  5.244985E-17
5882.29977989198  5.639559E-17
5885.14400386811  7.498151E-17
5887.98822784425  6.890864E-17
5890.83245182038  6.873076E-17
5893.67667579652  8.466550E-17
5896.52089977265  5.605353E-17
5899.36512374879  8.881774E-17
5902.20934772492  6.506715E-17
5905.05357170106  7.380436E-17
5907.89779567719  7.925198E-17
5910.74201965333  8.448861E-17
5913.58624362947  6.689035E-17
5916.4304676056  9.656812E-17
5919.27469158174  8.680310E-17
5922.11891555787  9.025415E-17
5924.96313953401  7.849622E-17
5927.80736351014  7.185058E-17
5930.65158748628  7.861405E-17
5933.49581146241  7.916944E-17
5936.34003543855  8.956092E-17
5939.18425941468  7.598169E-17
5942.02848339082  9.041843E-17
5944.87270736695  8.399822E-17
5947.71693134309  8.189828E-17
5950.56115531922  8.937846E-17
5953.40537929536  9.544570E-17
5956.24960327149  1.093176E-16
5959.09382724763  9.377764E-17
5961.93805122377  1.164441E-16
5964.7822751999  9.998486E-17
5967.62649917604  9.289770E-17
5970.47072315217  1.002795E-16
5973.31494712831  9.368315E-17
5976.15917110444  9.117457E-17
5979.00339508058  1.003275E-16
5981.84761905671  9.485202E-17
5984.69184303285  8.307622E-17
5987.53606700898  1.083155E-16
5990.38029098512  9.314011E-17
5993.22451496125  1.064602E-16
5996.06873893739  9.538638E-17
5998.91296291352  7.710823E-17
6001.75718688966  1.049486E-16
6004.60141086579  1.036793E-16
6007.44563484193  9.639807E-17
6010.28985881806  1.098458E-16
6013.1340827942  8.112681E-17
6015.97830677033  7.805277E-17
6018.82253074647  8.721219E-17
6021.6667547226  9.155214E-17
6024.51097869874  8.523194E-17
6027.35520267487  1.041031E-16
6030.19942665101  9.873080E-17
6033.04365062715  8.587409E-17
6035.88787460328  9.048133E-17
6038.73209857942  8.502223E-17
6041.57632255555  8.416211E-17
6044.42054653169  7.150890E-17
6047.26477050782  8.590981E-17
6050.10899448396  8.975904E-17
6052.95321846009  9.034960E-17
6055.79744243623  1.099436E-16
6058.64166641236  8.909288E-17
6061.4858903885  9.476951E-17
6064.33011436463  9.934215E-17
6067.17433834077  8.432968E-17
6070.0185623169  9.678506E-17
6072.86278629304  8.501994E-17
6075.70701026918  9.319027E-17
6078.55123424531  8.251406E-17
6081.39545822145  1.051330E-16
6084.23968219758  7.277112E-17
6087.08390617372  1.002945E-16
6089.92813014985  8.209947E-17
6092.77235412599  7.047917E-17
6095.61657810212  8.896488E-17
6098.46080207826  7.059070E-17
6101.30502605439  7.429585E-17
6104.14925003053  9.165222E-17
6106.99347400666  8.292619E-17
6109.8376979828  8.408275E-17
6112.68192195893  7.772289E-17
6115.52614593507  8.892716E-17
6118.3703699112  1.011609E-16
6121.21459388734  1.060251E-16
6124.05881786347  9.733575E-17
6126.90304183961  7.840997E-17
6129.74726581574  8.799848E-17
6132.59148979188  7.976589E-17
6135.43571376801  8.396645E-17
6138.27993774415  6.919003E-17
6141.12416172029  7.074399E-17
6143.96838569642  8.928036E-17
6146.81260967256  6.364246E-17
6149.65683364869  6.110365E-17
6152.50105762483  8.649028E-17
6155.34528160096  9.327766E-17
6158.1895055771  8.647332E-17
6161.03372955323  7.970828E-17
6163.87795352937  7.395745E-17
6166.7221775055  6.719144E-17
6169.56640148164  7.773004E-17
6172.41062545777  5.979483E-17
6175.25484943391  5.990632E-17
6178.09907341004  8.369078E-17
6180.94329738618  7.327239E-17
6183.78752136231  7.549420E-17
6186.63174533845  7.171438E-17
6189.47596931458  6.136559E-17
6192.32019329072  7.504947E-17
6195.16441726685  7.691573E-17
6198.00864124299  6.310366E-17
6200.85286521913  6.767886E-17
6203.69708919526  7.051013E-17
6206.5413131714  8.035329E-17
6209.38553714753  7.762824E-17
6212.22976112367  7.822962E-17
6215.0739850998  7.868809E-17
6217.91820907594  7.252655E-17
6220.76243305207  6.004094E-17
6223.60665702821  8.566157E-17
6226.45088100434  6.908391E-17
6229.29510498048  7.276509E-17
6232.13932895661  8.581663E-17
6234.98355293275  7.870578E-17
6237.82777690888  6.571714E-17
6240.67200088502  8.366420E-17
6243.51622486115  6.653027E-17
6246.36044883729  8.027820E-17
6249.20467281342  7.804062E-17
6252.04889678956  7.122464E-17
6254.8931207657  6.850746E-17
6257.73734474183  8.769267E-17
6260.58156871797  7.702949E-17
6263.4257926941  8.156036E-17
6266.27001667024  9.926633E-17
6269.11424064637  8.573263E-17
6271.95846462251  7.133725E-17
6274.80268859864  1.017307E-16
6277.64691257478  7.555691E-17
6280.49113655091  8.365840E-17
6283.33536052705  6.419564E-17
6286.17958450318  7.808396E-17
6289.02380847932  6.921713E-17
6291.86803245545  1.209647E-16
6294.71225643159  5.888842E-17
6297.55648040772  5.365179E-17
6300.40070438386  9.401818E-17
6303.24492835999  7.388759E-17
6306.08915233613  8.230312E-17
6308.93337631226  6.648780E-17
6311.7776002884  9.942435E-17
6314.62182426454  6.547412E-17
6317.46604824067  7.990722E-17
6320.31027221681  7.805406E-17
6323.15449619294  9.348506E-17
6325.99872016908  7.514677E-17
6328.84294414521  7.297912E-17
6331.68716812135  7.119157E-17
6334.53139209748  7.200879E-17
6337.37561607362  8.064814E-17
6340.21984004975  8.469496E-17
6343.06406402589  7.679751E-17
6345.90828800202  6.549001E-17
6348.75251197816  6.603636E-17
6351.59673595429  7.668390E-17
6354.44095993043  7.766957E-17
6357.28518390656  7.617387E-17
6360.1294078827  8.768321E-17
6362.97363185883  9.605686E-17
6365.81785583497  8.768189E-17
6368.66207981111  8.557140E-17
6371.50630378724  8.243536E-17
6374.35052776338  8.971613E-17
6377.19475173951  8.262783E-17
6380.03897571565  8.333685E-17
6382.88319969178  7.898770E-17
6385.72742366792  7.364247E-17
6388.57164764405  7.916337E-17
6391.41587162019  7.276443E-17
6394.26009559632  9.639152E-17
6397.10431957246  8.787416E-17
6399.94854354859  7.804872E-17
6402.79276752473  8.005641E-17
6405.63699150086  7.574430E-17
6408.481215477  7.496688E-17
6411.32543945313  8.798481E-17
6414.16966342927  8.395574E-17
6417.01388740541  6.963409E-17
6419.85811138154  7.656443E-17
6422.70233535768  9.423539E-17
6425.54655933381  7.233640E-17
6428.39078330995  8.805068E-17
6431.23500728608  7.729987E-17
6434.07923126222  7.755149E-17
6436.92345523835  6.272231E-17
6439.76767921449  8.403454E-17
6442.61190319062  6.467969E-17
6445.45612716676  6.392269E-17
6448.30035114289  5.511155E-17
6451.14457511903  5.898593E-17
6453.98879909516  6.185108E-17
6456.8330230713  6.922891E-17
6459.67724704743  6.157171E-17
6462.52147102357  5.018041E-17
6465.3656949997  6.111479E-17
6468.20991897584  6.354509E-17
6471.05414295197  5.353674E-17
6473.89836692811  4.302885E-17
6476.74259090424  4.941546E-17
6479.58681488038  3.295061E-17
6482.43103885652  5.100558E-17
6485.27526283265  5.482904E-17
6488.11948680879  5.027423E-17
6490.96371078492  4.823491E-17
6493.80793476106  3.925036E-17
6496.65215873719  4.805168E-17
6499.49638271333  3.986832E-17
6502.34060668946  3.316155E-17
6505.1848306656  4.409770E-17
6508.02905464173  3.155658E-17
6510.87327861787  4.231931E-17
6513.717502594  4.738183E-17
6516.56172657014  2.937469E-17
6519.40595054627  2.627504E-17
6522.25017452241  2.942194E-17
6525.09439849854  1.251864E-17
6527.93862247468  1.570060E-17
6530.78284645081  3.986308E-17
6533.62707042695  3.566049E-17
6536.47129440309  2.352123E-17
6539.31551837922  9.320439E-18
6542.15974235536  4.197794E-17
6545.00396633149  4.678290E-17
6547.84819030763  3.733781E-17
6550.69241428376  3.753594E-17
6553.5366382599  3.343845E-17
6556.38086223603  3.043987E-17
6559.22508621217  3.827106E-17
6562.0693101883  2.122096E-17
6564.91353416444  2.429991E-17
6567.75775814057  1.811587E-17
6570.60198211671  3.142664E-17
6573.44620609284  2.692613E-17
6576.29043006898  2.580330E-17
6579.13465404512  1.876879E-17
6581.97887802125  2.206011E-17
6584.82310199738  4.361001E-17
6587.66732597352  2.620929E-17
6590.51154994966  1.782429E-17
6593.35577392579  3.620370E-17
6596.19999790193  3.008994E-17
6599.04422187806  3.126734E-17
6601.8884458542  1.902023E-17
6604.73266983033  3.548029E-17
6607.57689380647  4.119489E-17
6610.4211177826  3.525377E-17
6613.26534175874  3.264607E-17
6616.10956573487  3.416201E-17
6618.95378971101  3.703518E-17
6621.79801368714  3.413224E-17
6624.64223766328  3.178334E-17
6627.48646163941  4.128450E-17
6630.33068561555  2.882436E-17
6633.17490959168  2.420461E-17
6636.01913356782  3.489129E-17
6638.86335754395  3.610663E-17
6641.70758152009  3.005273E-17
6644.55180549623  4.371312E-17
6647.39602947236  5.981037E-17
6650.2402534485  4.438599E-17
6653.08447742463  4.521160E-17
6655.92870140077  4.538865E-17
6658.7729253769  3.518167E-17
6661.61714935304  4.550222E-17
6664.46137332917  3.723173E-17
6667.30559730531  3.935581E-17
6670.14982128144  7.819576E-17
6672.99404525758  4.821619E-17
6675.83826923371  6.257242E-17
6678.68249320985  5.715751E-17
6681.52671718598  4.417958E-17
6684.37094116212  7.293341E-17
6687.21516513825  6.301675E-17
6690.05938911439  5.229816E-17
6692.90361309052  6.026831E-17
6695.74783706666  5.518306E-17
6698.59206104279  6.346517E-17
6701.43628501893  5.165696E-17
6704.28050899506  6.642578E-17
6707.1247329712  7.587364E-17
6709.96895694734  5.474656E-17
6712.81318092347  6.874991E-17
6715.65740489961  6.878081E-17
6718.50162887574  6.969404E-17
6721.34585285188  6.809668E-17
6724.19007682801  6.166459E-17
6727.03430080415  7.294807E-17
6729.87852478028  7.500717E-17
6732.72274875642  7.421677E-17
6735.56697273255  6.074200E-17
6738.41119670869  6.231546E-17
6741.25542068482  7.696769E-17
6744.09964466096  5.920576E-17
6746.94386863709  6.636776E-17
6749.78809261323  8.263992E-17
6752.63231658937  8.729972E-17
6755.4765405655  7.014181E-17
6758.32076454164  8.167387E-17
6761.16498851777  8.391659E-17
6764.00921249391  6.730794E-17
6766.85343647004  6.982461E-17
6769.69766044618  7.837037E-17
6772.54188442231  8.333533E-17
6775.38610839845  7.138869E-17
6778.23033237458  8.206190E-17
6781.07455635072  7.653848E-17
6783.91878032685  7.663207E-17
6786.76300430299  8.432417E-17
6789.60722827912  7.757534E-17
6792.45145225526  7.097844E-17
6795.29567623139  8.700966E-17
6798.13990020753  6.620706E-17
6800.98412418367  6.978472E-17
6803.8283481598  8.239180E-17
6806.67257213594  8.812727E-17
6809.51679611207  7.110143E-17
6812.36102008821  5.999305E-17
6815.20524406434  7.328489E-17
6818.04946804048  8.355390E-17
6820.89369201661  7.771099E-17
6823.73791599275  7.839839E-17
6826.58213996888  6.840184E-17
6829.42636394502  5.512922E-17
6832.27058792115  7.757142E-17
6835.11481189729  6.046359E-17
6837.95903587342  7.234294E-17
6840.80325984956  8.427824E-17
6843.64748382569  7.378726E-17
6846.49170780183  6.026064E-17
6849.33593177796  6.056582E-17
6852.1801557541  8.147033E-17
6855.02437973023  7.153914E-17
6857.86860370637  8.410884E-17
6860.7128276825  7.842791E-17
6863.55705165864  8.362589E-17
6866.40127563478  8.912622E-17
6869.24549961091  7.745834E-17
6872.08972358705  6.093414E-17
6874.93394756318  8.030084E-17
6877.77817153932  9.049977E-17
6880.62239551545  7.547946E-17
6883.46661949159  7.337889E-17
6886.31084346772  7.712485E-17
6889.15506744386  6.657434E-17
6891.99929141999  6.440781E-17
6894.84351539613  7.442671E-17
6897.68773937226  8.445019E-17
6900.5319633484  8.109064E-17
6903.37618732453  6.542866E-17
6906.22041130067  5.500768E-17
6909.0646352768  6.732895E-17
6911.90885925294  5.712139E-17
6914.75308322908  5.326737E-17
6917.59730720521  4.980640E-17
6920.44153118135  6.050685E-17
6923.28575515748  8.142935E-17
6926.12997913362  8.325327E-17
6928.97420310975  7.282810E-17
6931.81842708589  6.312293E-17
6934.66265106202  5.733491E-17
6937.50687503816  6.660323E-17
6940.35109901429  5.447244E-17
6943.19532299043  6.164277E-17
6946.03954696656  6.178740E-17
6948.8837709427  7.573519E-17
6951.72799491883  7.591580E-17
6954.57221889497  5.948058E-17
6957.4164428711  6.803052E-17
6960.26066684724  6.781317E-17
6963.10489082337  6.704759E-17
6965.94911479951  6.916318E-17
6968.79333877564  5.909994E-17
6971.63756275178  8.080266E-17
6974.48178672791  7.950313E-17
6977.32601070405  6.509506E-17
6980.17023468019  6.653553E-17
6983.01445865632  4.615451E-17
6985.85868263246  5.160146E-17
6988.70290660859  5.762262E-17
6991.54713058473  7.583774E-17
6994.39135456086  5.679828E-17
6997.235578537  4.520881E-17
7000.07980251313  5.524829E-17
7002.92402648927  6.384324E-17
7005.7682504654  4.634932E-17
7008.61247444154  5.867958E-17
7011.45669841767  6.711260E-17
7014.30092239381  6.261599E-17
7017.14514636994  5.785553E-17
7019.98937034608  6.102330E-17
7022.83359432221  5.892590E-17
7025.67781829835  5.702434E-17
7028.52204227449  6.405045E-17
7031.36626625062  6.412618E-17
7034.21049022676  4.880641E-17
7037.05471420289  6.066431E-17
7039.89893817903  7.965771E-17
7042.74316215516  6.627476E-17
7045.5873861313  5.560801E-17
7048.43161010743  5.183189E-17
7051.27583408357  5.907294E-17
7054.1200580597  5.481221E-17
7056.96428203584  6.149787E-17
7059.80850601197  4.580085E-17
7062.65272998811  6.750145E-17
7065.49695396424  4.497864E-17
7068.34117794038  5.308082E-17
7071.18540191651  6.644155E-17
7074.02962589265  6.217827E-17
7076.87384986878  6.920648E-17
7079.71807384492  6.032520E-17
7082.56229782105  7.431259E-17
7085.40652179719  5.887401E-17
7088.25074577332  4.250177E-17
7091.09496974946  3.397233E-17
7093.93919372559  4.824042E-17
7096.78341770173  6.296073E-17
7099.62764167787  6.538425E-17
7102.471865654  6.566689E-17
7105.31608963014  5.632672E-17
7108.16031360627  4.876139E-17
7111.00453758241  3.765289E-17
7113.84876155854  5.227271E-17
7116.69298553468  5.280904E-17
7119.53720951081  6.930404E-17
7122.38143348695  6.933690E-17
7125.22565746308  5.577050E-17
7128.06988143922  6.337829E-17
7130.91410541535  6.374795E-17
7133.75832939149  6.581946E-17
7136.60255336762  5.389322E-17
7139.44677734376  4.680946E-17
7142.2910013199  2.962466E-17
7145.13522529603  6.008066E-17
7147.97944927217  4.368522E-17
7150.8236732483  6.372526E-17
7153.66789722444  6.504480E-17
7156.51212120057  4.566168E-17
7159.35634517671  6.105277E-17
7162.20056915284  6.068350E-17
7165.04479312898  5.962618E-17
7167.88901710511  6.010392E-17
7170.73324108125  4.742903E-17
7173.57746505738  4.535745E-17
7176.42168903352  6.232275E-17
7179.26591300965  5.392257E-17
7182.11013698579  5.237572E-17
7184.95436096192  5.395183E-17
7187.79858493806  4.815239E-17
7190.64280891419  4.701032E-17
7193.48703289033  3.194009E-17
7196.33125686646  4.249447E-17
7199.1754808426  4.605573E-17
7202.01970481873  4.865951E-17
7204.86392879487  5.604871E-17
7207.70815277101  5.796057E-17
7210.55237674714  5.947507E-17
7213.39660072328  5.480047E-17
7216.24082469941  5.405045E-17
7219.08504867555  5.486991E-17
7221.92927265168  4.854645E-17
7224.77349662782  4.522672E-17
7227.61772060395  4.873807E-17
7230.46194458009  4.755672E-17
7233.30616855622  5.183935E-17
7236.15039253236  6.400502E-17
7238.99461650849  5.955868E-17
7241.83884048463  3.309614E-17
7244.68306446076  3.540819E-17
7247.5272884369  3.714348E-17
7250.37151241303  3.903671E-17
7253.21573638917  5.315343E-17
7256.0599603653  6.539880E-17
7258.90418434144  6.017415E-17
7261.74840831758  4.091672E-17
7264.59263229371  5.624561E-17
7267.43685626984  4.778971E-17
7270.28108024598  3.407810E-17
7273.12530422212  3.863594E-17
7275.96952819825  5.699944E-17
7278.81375217439  5.566697E-17
7281.65797615052  5.181891E-17
7284.50220012666  4.707189E-17
7287.34642410279  3.956393E-17
7290.19064807893  5.141170E-17
7293.03487205506  3.992010E-17
7295.8790960312  3.307155E-17
7298.72332000733  5.405892E-17
7301.56754398347  3.671791E-17
7304.4117679596  4.029306E-17
7307.25599193574  3.548966E-17
7310.10021591187  4.324913E-17
7312.94443988801  5.405148E-17
7315.78866386414  2.229326E-17
7318.63288784028  3.865954E-17
7321.47711181642  6.356893E-17
7324.32133579255  3.201535E-17
7327.16555976869  3.456206E-17
7330.00978374482  4.652055E-17
7332.85400772096  4.524313E-17
7335.69823169709  5.935294E-17
7338.54245567323  4.738078E-17
7341.38667964936  5.057925E-17
7344.2309036255  4.586969E-17
7347.07512760163  4.214251E-17
7349.91935157777  6.577452E-17
7352.7635755539  5.630800E-17
7355.60779953004  3.853914E-17
7358.45202350617  2.769645E-17
7361.29624748231  4.515731E-17
7364.14047145844  4.051144E-17
7366.98469543458  2.390839E-17
7369.82891941072  4.330617E-17
7372.67314338685  5.565400E-17
7375.51736736299  5.158794E-17
7378.36159133912  5.197366E-17
7381.20581531526  3.218729E-17
7384.05003929139  1.916338E-17
7386.89426326753  3.376719E-17
7389.73848724366  4.277307E-17
7392.5827112198  2.536884E-17
7395.42693519593  4.856985E-17
7398.27115917207  4.071033E-17
7401.1153831482  4.824804E-17
7403.95960712434  3.290391E-17
7406.80383110047  4.113700E-17
7409.64805507661  5.569561E-17
7412.49227905274  5.793601E-17
7415.33650302888  5.152873E-17
7418.18072700501  4.494972E-17
7421.02495098115  5.346254E-17
7423.86917495728  4.068768E-17
7426.71339893342  3.223535E-17
7429.55762290955  4.136735E-17
7432.40184688569  3.157689E-17
7435.24607086183  2.966277E-17
7438.09029483796  3.991014E-17
7440.9345188141  5.147966E-17
7443.77874279023  4.405948E-17
7446.62296676637  4.002618E-17
7449.4671907425  5.585943E-17
7452.31141471864  5.563660E-17
7455.15563869477  3.642844E-17
7457.99986267091  4.959304E-17
7460.84408664704  4.027114E-17
7463.68831062318  5.684506E-17
7466.53253459931  2.702209E-17
7469.37675857545  2.720734E-17
7472.22098255158  5.364168E-17
7475.06520652772  4.760261E-17
7477.90943050385  3.265276E-17
7480.75365447999  4.429922E-17
7483.59787845613  6.001281E-17
7486.44210243226  5.013298E-17
7489.2863264084  5.263935E-17
7492.13055038453  5.071228E-17
7494.97477436067  4.865483E-17
7497.8189983368  3.572166E-17
7500.66322231294  2.404840E-17
7503.50744628907  3.227467E-17
7506.35167026521  3.726268E-17
7509.19589424134  3.637146E-17
7512.04011821748  3.307066E-17
7514.88434219361  4.191328E-17
7517.72856616975  3.714915E-17
7520.57279014588  5.134250E-17
7523.41701412202  5.372848E-17
7526.26123809815  4.408463E-17
7529.10546207429  4.389818E-17
7531.94968605042  3.543541E-17
7534.79391002656  4.309140E-17
7537.63813400269  3.928914E-17
7540.48235797883  2.817082E-17
7543.32658195496  4.748116E-17
7546.1708059311  4.250896E-17
7549.01502990724  5.005492E-17
7551.85925388337  2.491512E-17
7554.70347785951  5.507052E-17
7557.54770183564  5.259487E-17
7560.39192581178  3.439556E-17
7563.23614978791  4.133250E-17
7566.08037376405  5.014236E-17
7568.92459774018  4.435744E-17
7571.76882171632  4.869457E-17
7574.61304569245  4.507279E-17
7577.45726966859  4.004202E-17
7580.30149364472  2.989252E-17
7583.14571762086  3.930537E-17
7585.98994159699  4.243879E-17
7588.83416557313  3.805926E-17
7591.67838954926  3.554609E-17
7594.5226135254  5.807664E-17
7597.36683750154  6.529794E-17
7600.21106147767  4.614235E-17
7603.05528545381  2.861063E-17
7605.89950942994  6.191522E-17
7608.74373340608  3.574522E-17
7611.58795738221  1.899090E-17
7614.43218135835  4.451557E-17
7617.27640533448  4.010062E-17
7620.12062931062  3.854948E-17
7622.96485328675  1.165655E-17
7625.80907726289  1.936232E-17
7628.65330123902  2.026242E-17
7631.49752521516  5.878387E-17
7634.34174919129  6.170213E-17
7637.18597316743  5.051337E-17
7640.03019714356  4.434625E-17
7642.8744211197  4.443035E-17
7645.71864509584  3.100562E-17
7648.56286907197  2.479953E-17
7651.4070930481  4.501556E-17
7654.25131702424  4.192688E-17
7657.09554100038  4.033951E-17
7659.93976497651  5.254558E-17
7662.78398895265  3.187906E-17
7665.62821292878  3.746085E-17
7668.47243690492  2.497906E-17
7671.31666088105  3.940025E-17
7674.16088485719  6.766686E-17
7677.00510883332  4.730313E-17
7679.84933280946  4.702962E-17
7682.69355678559  4.292073E-17
7685.53778076173  5.211211E-17
7688.38200473786  4.966590E-17
7691.226228714  4.621249E-17
7694.07045269013  4.884746E-17
7696.91467666627  3.974052E-17
7699.7589006424  4.329226E-17
7702.60312461854  4.577651E-17
7705.44734859467  4.939841E-17
7708.29157257081  4.472931E-17
7711.13579654695  8.574419E-17
7713.98002052308  4.441345E-17
7716.82424449922  5.561058E-17
7719.66846847535  2.835218E-17
7722.51269245149  5.668909E-17
7725.35691642762  4.450009E-17
7728.20114040376  3.759984E-17
7731.04536437989  3.492905E-17
7733.88958835603  2.733335E-17
7736.73381233216  1.529802E-17
7739.5780363083  3.498768E-17
7742.42226028443  5.355785E-17
7745.26648426057  2.494821E-17
7748.1107082367  2.239713E-17
7750.95493221284  4.246580E-17
7753.79915618897  3.892024E-17
7756.64338016511  4.657474E-17
7759.48760414124  3.573316E-17
7762.33182811738  2.703994E-17
7765.17605209352  6.306119E-17
7768.02027606965  4.021469E-17
7770.86450004579  4.202581E-17
7773.70872402192  5.955432E-17
7776.55294799806  5.294033E-17
7779.39717197419  4.644147E-17
7782.24139595033  4.292385E-17
7785.08561992646  4.364701E-17
7787.9298439026  6.113735E-17
7790.77406787873  2.888692E-17
7793.61829185487  3.897322E-17
7796.462515831  4.659433E-17
7799.30673980714  4.725145E-17
7802.15096378327  3.613955E-17
7804.99518775941  3.964405E-17
7807.83941173554  3.072776E-17
7810.68363571168  4.447497E-17
7813.52785968782  3.933206E-17
7816.37208366395  2.174442E-17
7819.21630764009  2.802917E-17
7822.06053161622  3.324196E-17
7824.90475559236  3.398225E-17
7827.74897956849  2.594181E-17
7830.59320354463  2.747704E-17
7833.43742752076  2.899336E-17
7836.2816514969  3.398587E-17
7839.12587547303  4.132638E-17
7841.97009944917  3.057311E-17
7844.8143234253  2.418958E-17
7847.65854740144  3.575935E-17
7850.50277137757  3.321568E-17
7853.34699535371  3.083215E-17
7856.19121932984  4.290704E-17
7859.03544330598  3.860197E-17
7861.87966728211  3.532224E-17
7864.72389125825  3.826866E-17
7867.56811523439  1.550743E-17
7870.41233921052  1.909606E-17
7873.25656318666  2.453250E-17
7876.10078716279  2.515505E-17
7878.94501113893  1.332205E-17
7881.78923511506  2.425159E-17
7884.6334590912  3.604397E-17
7887.47768306733  2.569196E-17
7890.32190704347  2.748322E-17
7893.1661310196  4.072314E-17
7896.01035499574  4.247749E-17
7898.85457897187  3.916678E-17
7901.69880294801  3.939828E-17
7904.54302692414  2.496038E-17
7907.38725090028  2.015498E-17
7910.23147487641  1.802885E-17
7913.07569885255  2.494273E-17
7915.91992282868  6.047356E-17
7918.76414680482  6.704403E-17
7921.60837078095  6.162852E-17
7924.45259475709  4.782505E-17
7927.29681873322  3.693094E-17
7930.14104270936  3.848824E-17
7932.9852666855  4.541230E-17
7935.82949066163  3.609375E-17
7938.67371463777  1.585349E-17
7941.5179386139  4.158099E-17
7944.36216259004  1.879584E-17
7947.20638656617  5.028551E-17
7950.05061054231  2.177498E-17
7952.89483451844  3.424048E-17
7955.73905849458  6.790462E-17
7958.58328247071  5.385510E-17
7961.42750644685  3.279529E-17
7964.27173042298  2.618099E-17
7967.11595439912  2.219510E-17
7969.96017837525  1.209693E-17
7972.80440235139  3.200794E-17
7975.64862632752  1.237868E-17
7978.49285030366  3.269321E-17
7981.3370742798  3.387873E-17
7984.18129825593  5.758777E-17
7987.02552223207  2.278279E-17
7989.8697462082  5.697331E-18
7992.71397018434  3.251288E-17
7995.55819416047  4.948069E-17
7998.40241813661  1.619294E-17
8001.24664211274  1.842704E-17
8004.09086608888  2.614376E-17
8006.93509006501  1.182791E-17
8009.77931404115  3.010659E-17
8012.62353801728  5.510061E-17
8015.46776199342  5.859873E-17
8018.31198596955  3.421694E-17
8021.15620994569  2.430319E-17
8024.00043392182  6.791836E-18
8026.84465789796  3.139467E-18
8029.68888187409  3.047092E-17
8032.53310585023  3.395449E-17
8035.37732982636  5.543657E-18
8038.2215538025  4.415205E-18
8041.06577777863  1.290130E-17
8043.91000175477  2.962760E-17
8046.7542257309  3.339443E-17
8049.59844970704  2.550718E-17
8052.44267368318  1.145195E-17
8055.28689765931  1.217965E-17
8058.13112163545  2.799698E-17
8060.97534561158  3.994446E-17
8063.81956958772  3.544101E-17
8066.66379356385  3.453499E-17
8069.50801753999  3.710795E-17
8072.35224151612  3.610265E-17
8075.19646549226  3.517892E-17
8078.04068946839  2.162251E-17
8080.88491344453  1.401188E-17
8083.72913742066  4.876549E-18
8086.5733613968  2.157095E-17
8089.41758537293  3.575870E-17
8092.26180934907  3.897671E-17
8095.10603332521  3.639992E-17
8097.95025730134  3.567030E-17
8100.79448127748  3.022713E-17
8103.63870525361  2.379492E-17
8106.48292922975  3.361651E-17
8109.32715320588  2.458039E-17
8112.17137718202  2.274607E-17
8115.01560115815  4.066455E-17
8117.85982513429  2.602240E-17
8120.70404911042  3.285385E-17
8123.54827308656  4.668379E-17
8126.39249706269  3.252144E-17
8129.23672103883  7.100463E-18
8132.08094501496  3.166576E-17
8134.9251689911  4.871521E-17
8137.76939296723  2.231159E-17
8140.61361694337  4.160611E-17
8143.4578409195  3.812095E-17
8146.30206489564  4.154361E-17
8149.14628887177  2.805520E-17
8151.99051284791  3.736470E-17
8154.83473682404  3.185214E-17
8157.67896080018  3.317872E-17
8160.52318477631  3.157064E-17
8163.36740875245  3.426261E-17
8166.21163272859  2.757460E-17
8169.05585670472  2.099598E-17
8171.90008068086  3.190938E-17
8174.74430465699  4.123809E-17
8177.58852863313  4.144464E-17
8180.43275260926  3.008380E-17
8183.2769765854  4.208563E-17
8186.12120056153  4.424065E-17
8188.96542453767  3.622844E-17
8191.8096485138  5.079385E-17
8194.65387248994  4.895984E-17
8197.49809646607  2.526832E-17
8200.34232044221  2.668279E-17
8203.18654441834  4.436403E-17
8206.03076839448  3.356649E-17
8208.87499237061  3.137373E-17
8211.71921634675  2.825762E-17
8214.56344032289  2.944488E-17
8217.40766429902  3.758301E-17
8220.25188827515  4.091507E-17
8223.09611225129  3.627736E-17
8225.94033622743  3.945625E-17
8228.78456020356  2.526190E-17
8231.6287841797  2.040730E-17
8234.47300815583  4.832589E-17
8237.31723213197  2.488150E-17
8240.1614561081  2.808301E-17
8243.00568008424  3.703276E-17
8245.84990406037  3.840264E-17
8248.69412803651  6.743541E-17
8251.53835201264  6.402882E-17
8254.38257598878  3.206961E-17
8257.22679996492  3.341708E-17
8260.07102394105  3.698105E-17
8262.91524791718  2.292877E-17
8265.75947189332  2.786555E-17
8268.60369586946  7.832856E-18
8271.44791984559  3.177533E-17
8274.29214382173  4.823578E-17
8277.13636779786  4.744725E-17
8279.980591774  4.946174E-17
8282.82481575013  4.296104E-17
8285.66903972627  2.567175E-17
8288.5132637024  3.070955E-17
8291.35748767854  2.710888E-17
8294.20171165467  4.168194E-17
8297.04593563081  1.932124E-17
8299.89015960694  1.792787E-17
8302.73438358308  4.187851E-17
8305.57860755921  3.405776E-17
8308.42283153535  2.051321E-17
8311.26705551148  3.874369E-17
8314.11127948762  3.562787E-17
8316.95550346375  2.972185E-17
8319.79972743989  3.462086E-17
8322.64395141602  3.998893E-17
8325.48817539216  3.184278E-17
8328.3323993683  2.147249E-17
8331.17662334443  5.867548E-17
8334.02084732056  5.980817E-17
8336.8650712967  3.204797E-17
8339.70929527284  4.031275E-17
8342.55351924897  5.137150E-17
8345.39774322511  6.262318E-17
8348.24196720124  4.873165E-17
8351.08619117738  3.924532E-17
8353.93041515351  1.828924E-17
8356.77463912965  3.711329E-17
8359.61886310578  1.702456E-17
8362.46308708192  1.386343E-17
8365.30731105805  3.207084E-17
8368.15153503419  4.186968E-17
8370.99575901032  4.879700E-17
8373.83998298646  6.746038E-17
8376.68420696259  6.346772E-17
8379.52843093873  2.970936E-17
8382.37265491486  5.987614E-17
8385.216878891  8.356970E-18
8388.06110286714  4.699250E-17
8390.90532684327  5.129414E-17
8393.74955081941  3.864933E-17
8396.59377479554  5.248380E-17
8399.43799877168  5.466923E-17
8402.28222274781  3.390183E-17
8405.12644672395  1.520852E-17
8407.97067070008  7.676834E-18
8410.81489467622  1.452864E-17
8413.65911865235  3.532456E-17
8416.50334262849  4.071959E-17
8419.34756660462  3.610419E-17
8422.19179058076  4.603425E-18
8425.03601455689  8.697501E-18
8427.88023853303  2.596032E-17
8430.72446250917  1.041383E-18
8433.5686864853  4.217399E-18
8436.41291046144  2.095871E-17
8439.25713443757  1.942396E-17
8442.10135841371  3.693647E-17
8444.94558238984  2.082381E-17
8447.78980636598  2.994414E-17
8450.63403034211  2.777858E-17
8453.47825431825  3.587013E-17
8456.32247829438  4.388075E-17
8459.16670227052  3.077886E-17
8462.01092624665  3.767524E-17
8464.85515022279  1.952584E-17
8467.69937419892  1.714914E-17
8470.54359817506  5.749294E-17
8473.38782215119  4.777660E-17
8476.23204612733  2.918776E-17
8479.07627010346  3.259430E-17
8481.9204940796  2.594752E-17
8484.76471805573  1.986068E-17
8487.60894203187  1.478736E-17
8490.453166008  1.825719E-17
8493.29738998414  3.626505E-17
8496.14161396027  4.995396E-17
8498.98583793641  2.925344E-17
8501.83006191255  1.905842E-17
8504.67428588868  3.536343E-17
8507.51850986482  2.217334E-17
8510.36273384095  2.804284E-18
8513.20695781709  1.761288E-17
8516.05118179322  5.110218E-17
8518.89540576936  1.320398E-17
8521.73962974549  1.433010E-17
8524.58385372163  1.907540E-17
8527.42807769776  1.193795E-17
8530.2723016739  1.268110E-17
8533.11652565003  1.811986E-17
8535.96074962617  3.068930E-17
8538.8049736023  2.356669E-17
8541.64919757844  2.405720E-17
8544.49342155457  4.739310E-17
8547.33764553071  3.203199E-17
8550.18186950685  2.036055E-17
8553.02609348298  2.007501E-17
8555.87031745912  6.950344E-19
8558.71454143525  -1.304449E-17
8561.55876541139  1.729140E-17
8564.40298938752  3.202446E-17
8567.24721336366  2.806311E-17
8570.09143733979  3.070272E-17
8572.93566131593  4.205060E-17
8575.77988529206  3.562515E-17
8578.6241092682  4.978863E-17
8581.46833324433  2.404935E-17
8584.31255722047  4.561262E-18
8587.1567811966  2.324003E-17
8590.00100517274  2.537101E-17
8592.84522914887  1.936980E-17
8595.68945312501  3.483272E-17
8598.53367710115  1.286666E-17
8601.37790107728  2.710060E-17
8604.22212505342  2.209459E-17
8607.06634902955  -2.701897E-18
8609.91057300569  2.409369E-17
8612.75479698182  3.806923E-17
8615.59902095796  3.186815E-17
8618.44324493409  5.165948E-17
8621.28746891023  4.536124E-17
8624.13169288636  8.886623E-17
8626.9759168625  6.731909E-17
8629.82014083863  8.136680E-18
8632.66436481477  3.772047E-17
8635.5085887909  4.300346E-17
8638.35281276704  4.319759E-18
8641.19703674317  1.402181E-17
8644.04126071931  1.216419E-17
8646.88548469544  -1.975860E-17
8649.72970867158  2.300709E-17
8652.57393264771  -8.367054E-18
8655.41815662385  7.480802E-18
8658.26238059998  2.649093E-17
8661.10660457612  1.334637E-17
8663.95082855226  3.433301E-17
8666.79505252839  6.299755E-18
8669.63927650453  -2.873293E-18
8672.48350048066  6.940150E-17
8675.3277244568  3.033136E-17
8678.17194843293  7.669635E-19
8681.01617240907  2.954507E-17
8683.8603963852  1.823492E-17
8686.70462036134  8.811856E-18
8689.54884433747  1.940741E-17
8692.39306831361  2.832100E-17
8695.23729228974  5.523626E-17
8698.08151626588  4.619389E-17
8700.92574024201  2.903187E-17
8703.76996421815  5.378576E-17
8706.61418819428  1.852351E-17
8709.45841217042  4.815718E-17
8712.30263614656  3.135764E-17
8715.14686012269  6.366360E-18
8717.99108409882  3.139794E-17
8720.83530807496  2.159407E-17
8723.6795320511  3.059506E-17
8726.52375602723  3.859456E-17
8729.36798000337  2.505688E-17
8732.2122039795  3.488156E-17
8735.05642795564  1.553050E-17
8737.90065193177  1.860469E-18
8740.74487590791  2.342403E-17
8743.58909988404  5.148755E-17
8746.43332386018  5.097896E-17
8749.27754783631  6.469558E-17
8752.12177181245  5.554650E-17
8754.96599578858  5.292463E-17
8757.81021976472  4.649623E-17
8760.65444374085  5.669422E-17
8763.49866771699  6.061371E-17
8766.34289169312  3.961070E-18
8769.18711566926  -1.640491E-17
8772.03133964539  1.830247E-17
8774.87556362153  -1.991109E-17
8777.71978759767  6.510165E-18
8780.5640115738  1.151203E-17
8783.40823554994  2.736972E-18
8786.25245952607  8.632372E-18
8789.09668350221  6.221622E-18
8791.94090747834  2.645819E-18
8794.78513145448  4.354520E-18
8797.62935543061  -8.999891E-18
8800.47357940675  2.549611E-17
8803.31780338288  1.615005E-17
8806.16202735902  2.964682E-17
8809.00625133515  3.371268E-17
8811.85047531129  2.375770E-17
8814.69469928742  2.860045E-17
8817.53892326356  9.596265E-18
8820.38314723969  6.734145E-17
8823.22737121583  3.385776E-17
8826.07159519197  2.288379E-18
8828.9158191681  2.519156E-17
8831.76004314423  1.761595E-17
8834.60426712037  2.185563E-17
8837.44849109651  5.845536E-17
8840.29271507264  4.169409E-17
8843.13693904878  -1.423713E-17
8845.98116302491  2.722144E-17
8848.82538700105  -2.630983E-18
8851.66961097718  2.415357E-17
8854.51383495332  2.112639E-17
8857.35805892945  -8.540092E-18
8860.20228290559  2.330192E-17
8863.04650688172  8.130266E-18
8865.89073085786  1.349841E-17
8868.73495483399  6.639685E-17
8871.57917881013  -1.643958E-17
8874.42340278626  -6.931130E-18
8877.2676267624  2.945342E-17
8880.11185073853  1.314709E-17
8882.95607471467  -4.320945E-18
8885.80029869081  9.004811E-18
8888.64452266694  5.653957E-17
8891.48874664308  -9.489284E-18
8894.33297061921  4.346059E-18
8897.17719459535  2.574118E-17
8900.02141857148  2.272032E-17
8902.86564254762  6.298354E-17
8905.70986652375  5.707362E-17
8908.55409049989  1.216479E-17
8911.39831447602  5.919732E-17
8914.24253845216  8.421608E-17
8917.08676242829  3.818333E-17
8919.93098640443  1.385158E-17
8922.77521038056  1.699996E-17
8925.6194343567  6.368516E-18
8928.46365833283  7.363261E-18
8931.30788230897  5.369101E-17
8934.1521062851  5.470597E-17
8936.99633026124  5.479851E-17
8939.84055423737  5.487080E-17
8942.68477821351  5.492178E-17
8945.52900218964  5.495395E-17
8948.37322616578  5.496418E-17
8951.21745014191  5.495481E-17
8954.06167411805  5.492381E-17
8956.90589809419  5.487141E-17
8959.75012207032  5.479865E-17
