4675.16799783707  3.738613E-19
4676.55999779701  7.257771E-19
4677.95199775696  -6.312289E-19
4679.3439977169  -2.346966E-19
4680.73599767685  -7.646483E-19
4682.1279976368  1.222969E-18
4683.51999759674  1.789385E-18
4684.91199755669  2.605793E-18
4686.30399751663  1.858271E-18
4687.69599747658  -1.957492E-19
4689.08799743652  -8.475439E-19
4690.47999739647  7.341827E-20
4691.87199735641  1.749154E-18
4693.26399731636  1.880632E-18
4694.65599727631  1.898993E-19
4696.04799723625  6.075507E-19
4697.4399971962  9.948251E-19
4698.83199715614  1.035552E-18
4700.22399711609  1.254878E-18
4701.61599707603  8.438322E-19
4703.00799703598  -1.418969E-18
4704.39999699593  -2.189603E-18
4705.79199695587  -2.086739E-18
4707.18399691582  -1.794419E-18
4708.57599687576  4.385150E-19
4709.96799683571  1.978581E-18
4711.35999679566  4.543099E-19
4712.7519967556  4.984632E-19
4714.14399671555  9.466787E-19
4715.53599667549  2.344305E-18
4716.92799663544  -1.402741E-18
4718.31999659538  -1.085589E-18
4719.71199655533  -1.242170E-18
4721.10399651527  1.679332E-18
4722.49599647522  2.139199E-18
4723.88799643517  1.147899E-19
4725.27999639511  4.544690E-19
4726.67199635506  1.315836E-18
4728.063996315  1.202704E-19
4729.45599627495  -1.118481E-19
4730.84799623489  5.108804E-20
4732.23999619484  8.025024E-19
4733.63199615478  -1.002118E-18
4735.02399611473  -8.073215E-19
4736.41599607468  3.640104E-20
4737.80799603462  -8.793129E-19
4739.19999599457  -1.319923E-18
4740.59199595451  6.647691E-19
4741.98399591446  8.746332E-19
4743.3759958744  -8.481680E-19
4744.76799583435  -8.739035E-19
4746.1599957943  1.680840E-18
4747.55199575424  9.974983E-19
4748.94399571419  -7.472148E-19
4750.33599567413  -2.707950E-19
4751.72799563408  -2.655213E-19
4753.11999559403  1.640262E-18
4754.51199555397  -4.934369E-20
4755.90399551392  3.395763E-18
4757.29599547386  4.052027E-19
4758.68799543381  -3.702069E-19
4760.07999539375  2.922577E-18
4761.4719953537  8.370225E-20
4762.86399531364  -7.004726E-20
4764.25599527359  -1.701812E-19
4765.64799523354  2.505775E-19
4767.03999519348  -1.014722E-18
4768.43199515343  -2.274126E-19
4769.82399511337  6.664333E-19
4771.21599507332  2.033517E-18
4772.60799503326  -2.918610E-19
4773.99999499321  -4.426415E-19
4775.39199495316  7.292022E-19
4776.7839949131  -1.192893E-18
4778.17599487305  -1.210004E-18
4779.56799483299  -1.835594E-18
4780.95999479294  9.479386E-19
4782.35199475288  8.883836E-19
4783.74399471283  1.999444E-18
4785.13599467278  9.480033E-19
4786.52799463272  3.890901E-19
4787.91999459267  2.765470E-18
4789.31199455261  3.669332E-18
4790.70399451256  1.281753E-19
4792.0959944725  2.385817E-19
4793.48799443245  3.242703E-19
4794.87999439239  3.266510E-19
4796.27199435234  -5.958892E-19
4797.66399431229  -8.743326E-19
4799.05599427223  2.704000E-19
4800.44799423218  2.047768E-19
4801.83999419212  -8.738054E-19
4803.23199415207  1.178252E-18
4804.62399411201  6.235274E-19
4806.01599407196  1.964267E-19
4807.40799403191  1.114467E-19
4808.79999399185  3.455914E-19
4810.1919939518  5.748501E-19
4811.58399391174  2.513681E-19
4812.97599387169  5.826497E-19
4814.36799383163  1.778201E-18
4815.75999379158  -4.463834E-19
4817.15199375153  -1.721043E-18
4818.54399371147  -1.867809E-18
4819.93599367142  -1.756217E-18
4821.32799363136  -1.294079E-18
4822.71999359131  5.561633E-19
4824.11199355125  4.483935E-19
4825.5039935112  -2.996677E-19
4826.89599347115  -3.486768E-18
4828.28799343109  -3.348681E-18
4829.67999339104  -9.319460E-19
4831.07199335098  -1.308948E-18
4832.46399331093  1.868840E-19
4833.85599327087  9.393238E-19
4835.24799323082  1.005663E-18
4836.63999319077  6.668498E-19
4838.03199315071  7.426224E-20
4839.42399311066  1.513831E-19
4840.8159930706  -1.013731E-18
4842.20799303055  -1.064872E-19
4843.59999299049  5.028019E-19
4844.99199295044  3.359398E-19
4846.38399291038  1.025420E-18
4847.77599287033  2.741218E-19
4849.16799283028  -1.721451E-18
4850.55999279022  -4.357236E-20
4851.95199275017  1.031882E-18
4853.34399271011  1.058446E-19
4854.73599267006  -3.350720E-19
4856.12799263001  1.122278E-19
4857.51999258995  1.974978E-18
4858.9119925499  -4.947806E-19
4860.30399250984  5.926019E-19
4861.69599246979  6.362233E-19
4863.08799242973  3.595955E-19
4864.47999238968  -1.099094E-18
4865.87199234962  -1.259436E-18
4867.26399230957  -2.548016E-18
4868.65599226952  -1.067514E-18
4870.04799222946  -8.511754E-20
4871.43999218941  -4.049253E-19
4872.83199214935  -2.391065E-18
4874.2239921093  -1.266367E-18
4875.61599206924  6.062251E-19
4877.00799202919  -1.804766E-19
4878.39999198914  -4.492808E-19
4879.79199194908  -1.275209E-18
4881.18399190903  1.731933E-18
4882.57599186897  -1.128244E-18
4883.96799182892  -4.997807E-19
4885.35999178886  2.930229E-19
4886.75199174881  1.033286E-18
4888.14399170876  6.461199E-19
4889.5359916687  -2.079235E-19
4890.92799162865  -2.068746E-18
4892.31999158859  -2.717834E-18
4893.71199154854  -2.134561E-18
4895.10399150848  5.227667E-20
4896.49599146843  -4.691592E-19
4897.88799142837  -6.585790E-19
4899.27999138832  -1.024337E-18
4900.67199134827  -1.418885E-19
4902.06399130821  6.524595E-19
4903.45599126816  1.319045E-18
4904.8479912281  1.252247E-19
4906.23999118805  1.374396E-18
4907.63199114799  1.062678E-19
4909.02399110794  -2.088588E-19
4910.41599106789  -3.449550E-19
4911.80799102783  -3.195590E-19
4913.19999098778  3.410079E-19
4914.59199094772  1.651742E-18
4915.98399090767  1.683769E-19
4917.37599086761  -5.419990E-19
4918.76799082756  6.864684E-19
4920.15999078751  -6.247285E-20
4921.55199074745  2.080238E-19
4922.9439907074  -6.488831E-20
4924.33599066734  2.220191E-18
4925.72799062729  1.892586E-19
4927.11999058724  -1.640181E-19
4928.51199054718  -3.736385E-19
4929.90399050713  3.627335E-19
4931.29599046707  -8.601264E-19
4932.68799042702  3.139623E-19
4934.07999038696  2.168358E-18
4935.47199034691  1.178123E-18
4936.86399030685  1.376216E-18
4938.2559902668  1.413552E-18
4939.64799022675  1.822329E-19
4941.03999018669  -1.396615E-18
4942.43199014664  -1.423581E-18
4943.82399010658  -5.212822E-19
4945.21599006653  -9.531447E-19
4946.60799002647  -4.372990E-19
4947.99998998642  3.695642E-19
4949.39198994637  3.863163E-19
4950.78398990631  2.428428E-19
4952.17598986626  4.982711E-19
4953.5679898262  -7.860107E-19
4954.95998978615  -1.785925E-18
4956.35198974609  -1.896232E-18
4957.74398970604  5.040840E-19
4959.13598966598  2.098032E-18
4960.52798962593  7.864628E-19
4961.91998958588  7.202893E-19
4963.31198954582  1.316444E-19
4964.70398950577  -1.478820E-18
4966.09598946571  -2.578152E-18
4967.48798942566  -2.218856E-19
4968.87998938561  5.749189E-19
4970.27198934555  2.164431E-19
4971.6639893055  7.627984E-19
4973.05598926544  2.028937E-18
4974.44798922539  1.650484E-18
4975.83998918533  -1.499664E-18
4977.23198914528  -1.274047E-19
4978.62398910523  2.946803E-19
4980.01598906517  -3.431442E-18
4981.40798902512  -4.777801E-19
4982.79998898506  -7.326955E-19
4984.19198894501  5.126372E-19
4985.58398890495  7.796169E-19
4986.9759888649  4.417378E-19
4988.36798882484  -1.129592E-19
4989.75998878479  -8.408550E-19
4991.15198874474  -5.327606E-19
4992.54398870468  5.081260E-19
4993.93598866463  1.707477E-18
4995.32798862457  8.752199E-19
4996.71998858452  4.946623E-20
4998.11198854446  -6.060435E-19
4999.50398850441  -3.282686E-19
5000.89598846436  7.925113E-19
5002.2879884243  8.360275E-19
5003.67998838425  9.686999E-19
5005.07198834419  -6.207536E-19
5006.46398830414  -3.566172E-19
5007.85598826408  -7.180033E-19
5009.24798822403  -2.416952E-19
5010.63998818398  6.770155E-20
5012.03198814392  -1.467547E-18
5013.42398810387  3.045991E-19
5014.81598806381  -2.704706E-19
5016.20798802376  -4.905565E-19
5017.5999879837  -6.594695E-19
5018.99198794365  1.916229E-18
5020.3839879036  -3.812433E-19
5021.77598786354  3.022449E-19
5023.16798782349  -6.044824E-19
5024.55998778343  1.957400E-20
5025.95198774338  9.234000E-19
5027.34398770332  3.007865E-18
5028.73598766327  7.697129E-19
5030.12798762322  1.277680E-18
5031.51998758316  5.677406E-19
5032.91198754311  1.504504E-18
5034.30398750305  7.619351E-19
5035.695987463  1.789737E-18
5037.08798742294  1.209161E-18
5038.47998738289  6.668020E-19
5039.87198734284  1.145645E-18
5041.26398730278  1.729486E-18
5042.65598726273  1.064885E-18
5044.04798722267  -6.547065E-21
5045.43998718262  -1.584932E-18
5046.83198714256  -1.061201E-18
5048.22398710251  -6.281132E-19
5049.61598706246  -8.614911E-19
5051.0079870224  -1.003358E-18
5052.39998698235  -1.821492E-18
5053.79198694229  5.390194E-19
5055.18398690224  1.494697E-18
5056.57598686218  1.238098E-18
5057.96798682213  8.054217E-19
5059.35998678208  6.005564E-19
5060.75198674202  -1.216847E-18
5062.14398670197  -8.798131E-19
5063.53598666191  4.819964E-19
5064.92798662186  -2.423163E-19
5066.3199865818  -1.787353E-18
5067.71198654175  -4.818725E-19
5069.1039865017  1.224271E-18
5070.49598646164  1.136409E-19
5071.88798642158  -9.817782E-19
5073.27998638153  -1.316764E-18
5074.67198634148  2.823968E-20
5076.06398630142  -5.638571E-19
5077.45598626137  -4.157057E-19
5078.84798622131  1.764764E-18
5080.23998618126  2.070429E-18
5081.63198614121  9.219511E-19
5083.02398610115  1.168157E-18
5084.4159860611  -4.411417E-19
5085.80798602104  -8.021846E-19
5087.19998598099  -3.594296E-19
5088.59198594093  -5.284523E-20
5089.98398590088  1.057620E-18
5091.37598586082  1.892041E-18
5092.76798582077  8.474765E-19
5094.15998578072  2.885815E-18
5095.55198574066  3.495690E-19
5096.94398570061  -1.286464E-18
5098.33598566055  -4.746624E-19
5099.7279856205  1.129025E-20
5101.11998558044  -7.880426E-19
5102.51198554039  -8.581005E-19
5103.90398550034  -9.697234E-19
5105.29598546028  3.778295E-19
5106.68798542023  -1.635757E-18
5108.07998538017  8.109251E-19
5109.47198534012  2.852601E-19
5110.86398530006  1.148013E-18
5112.25598526001  -3.088867E-19
5113.64798521996  1.118493E-20
5115.0399851799  -1.882384E-19
5116.43198513985  5.346459E-20
5117.82398509979  5.329794E-19
5119.21598505974  -5.909200E-19
5120.60798501968  -1.145751E-18
5121.99998497963  7.650273E-19
5123.39198493958  1.568481E-18
5124.78398489952  8.684084E-19
5126.17598485947  -1.282773E-18
5127.56798481941  -7.295141E-19
5128.95998477936  -1.173983E-18
5130.3519847393  -1.307486E-18
5131.74398469925  -3.373938E-19
5133.1359846592  3.781830E-19
5134.52798461914  1.844515E-18
5135.91998457909  -3.741476E-19
5137.31198453903  -1.440326E-19
5138.70398449898  -1.253223E-19
5140.09598445892  5.233533E-19
5141.48798441887  4.312839E-19
5142.87998437881  6.242513E-19
5144.27198433876  -1.411667E-18
5145.66398429871  1.432168E-18
5147.05598425865  1.377868E-18
5148.4479842186  -9.428826E-19
5149.83998417854  -8.401624E-19
5151.23198413849  5.030649E-20
5152.62398409844  -8.679920E-19
5154.01598405838  1.267574E-18
5155.40798401833  2.740513E-18
5156.79998397827  -3.909281E-19
5158.19198393822  9.300044E-19
5159.58398389816  -1.449399E-19
5160.97598385811  1.120003E-18
5162.36798381806  2.513234E-18
5163.759983778  -1.361212E-18
5165.15198373795  2.018026E-19
5166.54398369789  5.345388E-19
5167.93598365784  9.029794E-19
5169.32798361778  -2.560995E-19
5170.71998357773  -2.376815E-18
5172.11198353768  9.684598E-20
5173.50398349762  4.150146E-19
5174.89598345757  1.294776E-18
5176.28798341751  3.122753E-19
5177.67998337746  6.523348E-19
5179.0719833374  1.040276E-19
5180.46398329735  9.389794E-20
5181.8559832573  6.036669E-19
5183.24798321724  -7.172835E-19
5184.63998317719  2.060671E-18
5186.03198313713  3.108024E-19
5187.42398309708  1.080686E-18
5188.81598305702  1.148542E-18
5190.20798301697  4.595265E-19
5191.59998297692  5.932613E-19
5192.99198293686  1.232716E-19
5194.38398289681  9.691452E-19
5195.77598285675  2.394526E-20
5197.1679828167  1.398727E-18
5198.55998277664  8.869524E-19
5199.95198273659  -3.230510E-20
5201.34398269653  -3.346794E-19
5202.73598265648  -1.222585E-18
5204.12798261643  -4.883009E-19
5205.51998257637  -2.203772E-19
5206.91198253632  4.088109E-19
5208.30398249626  1.271158E-19
5209.69598245621  1.358900E-19
5211.08798241616  7.940480E-19
5212.4799823761  8.281195E-19
5213.87198233605  1.808472E-18
5215.26398229599  1.435855E-18
5216.65598225594  7.073263E-19
5218.04798221588  -4.645678E-19
5219.43998217583  2.170202E-19
5220.83198213577  -8.094806E-19
5222.22398209572  4.999961E-19
5223.61598205566  8.736700E-19
5225.00798201561  1.379481E-20
5226.39998197556  1.475827E-18
5227.7919819355  9.815909E-19
5229.18398189545  -1.563350E-18
5230.57598185539  -1.216717E-18
5231.96798181534  8.368146E-19
5233.35998177529  1.299334E-18
5234.75198173523  1.213163E-18
5236.14398169518  6.147514E-19
5237.53598165512  5.696055E-19
5238.92798161507  1.235512E-18
5240.31998157501  -2.851684E-19
5241.71198153496  -1.756376E-19
5243.1039814949  -2.561160E-19
5244.49598145485  4.015981E-19
5245.8879814148  -2.716730E-19
5247.27998137474  -8.996755E-19
5248.67198133469  1.446360E-18
5250.06398129463  9.243440E-19
5251.45598125458  -5.571813E-19
5252.84798121453  -4.733333E-19
5254.23998117447  -3.650531E-20
5255.63198113442  1.516761E-18
5257.02398109436  1.238352E-18
5258.41598105431  1.540410E-18
5259.80798101425  2.041553E-18
5261.1999809742  2.587716E-19
5262.59198093414  -6.436254E-19
5263.98398089409  3.677870E-19
5265.37598085404  -5.968327E-19
5266.76798081398  -1.064980E-18
5268.15998077393  -1.769919E-19
5269.55198073387  3.734224E-19
5270.94398069382  5.282168E-19
5272.33598065376  1.422818E-18
5273.72798061371  1.343657E-18
5275.11998057366  1.125585E-18
5276.5119805336  2.117353E-18
5277.90398049355  5.070240E-19
5279.29598045349  1.187215E-18
5280.68798041344  5.085753E-19
5282.07998037338  1.386047E-19
5283.47198033333  -9.680917E-19
5284.86398029328  -2.220069E-18
5286.25598025322  -7.456792E-19
5287.64798021317  9.881274E-19
5289.03998017311  1.391963E-18
5290.43198013306  9.819298E-19
5291.823980093  -9.598620E-19
5293.21598005295  -1.129963E-18
5294.6079800129  -2.957540E-19
5295.99997997284  1.637655E-18
5297.39197993279  8.573409E-19
5298.78397989273  -6.568698E-19
5300.17597985268  1.953249E-19
5301.56797981262  9.181740E-19
5302.95997977257  6.911093E-19
5304.35197973251  5.403359E-19
5305.74397969246  3.195547E-19
5307.13597965241  8.991997E-20
5308.52797961235  -5.954333E-19
5309.9199795723  2.217879E-19
5311.31197953224  1.541858E-18
5312.70397949219  1.795365E-18
5314.09597945213  1.205721E-18
5315.48797941208  8.126536E-19
5316.87997937203  7.743755E-20
5318.27197933197  -1.585589E-19
5319.66397929192  7.968050E-19
5321.05597925186  9.640057E-19
5322.44797921181  -1.365614E-18
5323.83997917175  -7.098567E-19
5325.2319791317  -6.916218E-20
5326.62397909165  7.005009E-20
5328.01597905159  5.310063E-19
5329.40797901154  1.699294E-18
5330.79997897148  2.948940E-18
5332.19197893143  6.029972E-19
5333.58397889137  1.379808E-18
5334.97597885132  7.528203E-19
5336.36797881127  2.989697E-19
5337.75997877121  -8.040631E-19
5339.15197873116  -7.330603E-19
5340.5439786911  -8.553459E-19
5341.93597865105  1.126541E-18
5343.32797861099  8.873723E-19
5344.71997857094  -7.942914E-19
5346.11197853088  9.094932E-21
5347.50397849083  9.376428E-19
5348.89597845078  4.717850E-19
5350.28797841072  6.655222E-19
5351.67997837067  -1.761452E-20
5353.07197833061  1.837369E-18
5354.46397829056  3.030741E-18
5355.8559782505  1.709853E-18
5357.24797821045  -1.151407E-18
5358.6399781704  -7.681899E-19
5360.03197813034  9.107418E-19
5361.42397809029  -1.016830E-18
5362.81597805023  -2.920368E-19
5364.20797801018  6.580806E-19
5365.59997797013  7.840752E-19
5366.99197793007  1.305964E-18
5368.38397789002  4.118598E-19
5369.77597784996  1.364923E-18
5371.16797780991  1.586269E-18
5372.55997776985  6.847891E-19
5373.9519777298  6.754313E-19
5375.34397768974  -8.618025E-19
5376.73597764969  -6.175307E-19
5378.12797760964  1.332148E-18
5379.51997756958  -4.371569E-19
5380.91197752953  -9.487066E-19
5382.30397748947  1.220014E-18
5383.69597744942  1.516136E-18
5385.08797740936  1.426558E-18
5386.47997736931  1.733106E-18
5387.87197732926  -4.264760E-19
5389.2639772892  8.666842E-19
5390.65597724915  1.270536E-18
5392.04797720909  3.214195E-19
5393.43997716904  1.523237E-20
5394.83197712898  6.517931E-19
5396.22397708893  -1.267139E-18
5397.61597704887  2.076524E-18
5399.00797700882  9.253518E-19
5400.39997696877  2.123142E-19
5401.79197692871  8.730485E-19
5403.18397688866  1.400795E-19
5404.5759768486  7.097574E-19
5405.96797680855  -3.285230E-20
5407.3599767685  8.763331E-19
5408.75197672844  9.178254E-19
5410.14397668839  2.022206E-18
5411.53597664833  3.344014E-19
5412.92797660828  1.404026E-18
5414.31997656822  1.477666E-18
5415.71197652817  2.266554E-18
5417.10397648811  1.256147E-18
5418.49597644806  9.765210E-19
5419.88797640801  -4.767126E-19
5421.27997636795  -8.057891E-19
5422.6719763279  1.765686E-18
5424.06397628784  4.266387E-19
5425.45597624779  7.197975E-19
5426.84797620774  3.151911E-19
5428.23997616768  1.520388E-18
5429.63197612763  1.151570E-19
5431.02397608757  -9.357541E-19
5432.41597604752  1.978799E-18
5433.80797600746  3.929750E-18
5435.19997596741  2.490091E-18
5436.59197592735  2.720194E-18
5437.9839758873  3.329981E-18
5439.37597584725  1.655606E-18
5440.76797580719  1.179484E-18
5442.15997576714  1.267670E-18
5443.55197572708  8.670493E-19
5444.94397568703  1.970366E-19
5446.33597564697  1.021589E-18
5447.72797560692  1.517813E-18
5449.11997556687  4.053525E-19
5450.51197552681  1.443765E-18
5451.90397548676  1.469282E-18
5453.2959754467  7.070203E-19
5454.68797540665  1.789470E-19
5456.07997536659  1.403463E-18
5457.47197532654  1.416180E-18
5458.86397528648  -1.125499E-18
5460.25597524643  -3.530707E-19
5461.64797520638  3.453484E-19
5463.03997516632  -6.277136E-19
5464.43197512627  -1.578971E-18
5465.82397508621  4.423563E-19
5467.21597504616  -1.207163E-20
5468.60797500611  -2.989821E-19
5469.99997496605  7.497268E-19
5471.391974926  2.418454E-18
5472.78397488594  2.627875E-18
5474.17597484589  7.520059E-19
5475.56797480583  9.953059E-19
5476.95997476578  2.481580E-18
5478.35197472572  9.929020E-19
5479.74397468567  5.086767E-19
5481.13597464562  7.415524E-19
5482.52797460556  4.515373E-19
5483.91997456551  2.373296E-18
5485.31197452545  1.764672E-18
5486.7039744854  2.253499E-18
5488.09597444534  1.546415E-18
5489.48797440529  1.259714E-18
5490.87997436524  6.095637E-19
5492.27197432518  2.110472E-18
5493.66397428513  8.360749E-19
5495.05597424507  8.153112E-19
5496.44797420502  1.138221E-18
5497.83997416496  1.181076E-18
5499.23197412491  1.741383E-18
5500.62397408486  2.737778E-18
5502.0159740448  1.895462E-18
5503.40797400475  3.155994E-18
5504.79997396469  3.934513E-18
5506.19197392464  1.627450E-18
5507.58397388458  1.807541E-18
5508.97597384453  7.835501E-19
5510.36797380448  1.684635E-18
5511.75997376442  2.211996E-18
5513.15197372437  2.396755E-18
5514.54397368431  1.776944E-18
5515.93597364426  2.190192E-18
5517.3279736042  2.385211E-18
5518.71997356415  9.290611E-19
5520.1119735241  -3.871302E-19
5521.50397348404  8.928188E-19
5522.89597344399  3.717580E-19
5524.28797340393  -4.601561E-19
5525.67997336388  5.089740E-19
5527.07197332382  2.506283E-18
5528.46397328377  2.282790E-18
5529.85597324371  2.937104E-18
5531.24797320366  7.843557E-19
5532.63997316361  9.417918E-19
5534.03197312355  -8.621507E-19
5535.4239730835  1.322670E-18
5536.81597304344  1.856849E-18
5538.20797300339  1.008666E-18
5539.59997296334  2.932253E-19
5540.99197292328  5.233976E-19
5542.38397288323  1.459866E-18
5543.77597284317  -1.834300E-19
5545.16797280312  3.174165E-18
5546.55997276306  2.399014E-18
5547.95197272301  4.217007E-19
5549.34397268295  1.146580E-18
5550.7359726429  1.804527E-18
5552.12797260285  -9.613364E-20
5553.51997256279  1.291282E-18
5554.91197252274  3.966911E-19
5556.30397248268  4.060558E-19
5557.69597244263  1.289357E-18
5559.08797240257  3.136591E-18
5560.47997236252  2.017641E-18
5561.87197232247  -3.051249E-19
5563.26397228241  2.315770E-18
5564.65597224236  1.756746E-18
5566.0479722023  1.787605E-18
5567.43997216225  1.316637E-18
5568.83197212219  2.199792E-19
5570.22397208214  3.787579E-19
5571.61597204208  2.248576E-18
5573.00797200203  2.166524E-18
5574.39997196198  1.838075E-18
5575.79197192192  4.703682E-18
5577.18397188187  5.005762E-18
5578.57597184181  -1.346666E-18
5579.96797180176  4.552180E-18
5581.35997176171  4.598038E-18
5582.75197172165  3.700921E-18
5584.1439716816  1.604077E-18
5585.53597164154  1.191809E-18
5586.92797160149  -4.922974E-19
5588.31997156143  1.659199E-18
5589.71197152138  -3.926827E-19
5591.10397148132  1.482172E-18
5592.49597144127  1.961951E-18
5593.88797140122  2.053937E-18
5595.27997136116  3.443143E-18
5596.67197132111  1.474689E-18
5598.06397128105  5.406285E-19
5599.455971241  2.351559E-19
5600.84797120094  1.754667E-18
5602.23997116089  8.300685E-19
5603.63197112084  1.365080E-18
5605.02397108078  2.407114E-18
5606.41597104073  1.637743E-18
5607.80797100067  8.425752E-19
5609.19997096062  -7.276447E-19
5610.59197092057  2.232049E-18
5611.98397088051  2.464682E-18
5613.37597084046  2.071663E-18
5614.7679708004  1.971246E-18
5616.15997076035  -6.555597E-19
5617.55197072029  -1.671766E-21
5618.94397068024  -4.757225E-19
5620.33597064018  1.040683E-18
5621.72797060013  1.563242E-18
5623.11997056008  1.595381E-18
5624.51197052002  2.539836E-18
5625.90397047997  6.611383E-19
5627.29597043991  1.728617E-18
5628.68797039986  -7.266589E-19
5630.0799703598  7.383940E-19
5631.47197031975  9.403697E-20
5632.8639702797  6.388162E-19
5634.25597023964  1.530505E-18
5635.64797019959  -1.085411E-18
5637.03997015953  5.385177E-19
5638.43197011948  -9.818107E-20
5639.82397007942  4.802338E-20
5641.21597003937  -1.245840E-18
5642.60796999931  1.151704E-18
5643.99996995926  1.254970E-18
5645.39196991921  8.546696E-19
5646.78396987915  1.225625E-18
5648.1759698391  2.869472E-18
5649.56796979904  1.675408E-18
5650.95996975899  1.939651E-18
5652.35196971893  2.229529E-20
5653.74396967888  1.380186E-18
5655.13596963883  -1.397193E-19
5656.52796959877  4.080296E-19
5657.91996955872  6.721589E-19
5659.31196951866  2.077383E-18
5660.70396947861  3.379211E-18
5662.09596943855  -6.750567E-20
5663.4879693985  -1.263115E-19
5664.87996935845  -3.777480E-19
5666.27196931839  1.385097E-18
5667.66396927834  1.497881E-18
5669.05596923828  5.150107E-19
5670.44796919823  1.257508E-18
5671.83996915817  3.142858E-18
5673.23196911812  -1.698995E-19
5674.62396907806  3.753263E-19
5676.01596903801  1.438355E-18
5677.40796899796  1.173174E-18
5678.7999689579  -8.555404E-19
5680.19196891785  -3.728838E-19
5681.58396887779  1.195610E-18
5682.97596883774  6.268685E-19
5684.36796879769  3.598209E-18
5685.75996875763  2.142691E-18
5687.15196871758  -5.717195E-21
5688.54396867752  -9.112676E-19
5689.93596863747  -4.910030E-19
5691.32796859741  2.133745E-18
5692.71996855736  2.376224E-18
5694.1119685173  2.599253E-18
5695.50396847725  8.813225E-20
5696.8959684372  1.788763E-19
5698.28796839714  1.395475E-18
5699.67996835709  2.179114E-18
5701.07196831703  1.196162E-18
5702.46396827698  2.492579E-18
5703.85596823692  2.555471E-18
5705.24796819687  1.979418E-18
5706.63996815682  7.084357E-19
5708.03196811676  -1.764246E-18
5709.42396807671  1.681247E-18
5710.81596803665  2.231481E-18
5712.2079679966  -2.248896E-19
5713.59996795654  3.468230E-19
5714.99196791649  -6.718480E-19
5716.38396787644  4.831969E-19
5717.77596783638  1.009005E-18
5719.16796779633  1.410511E-18
5720.55996775627  2.676623E-20
5721.95196771622  1.663694E-20
5723.34396767616  4.739734E-19
5724.73596763611  -7.393874E-19
5726.12796759606  2.560170E-19
5727.519967556  1.127455E-18
5728.91196751595  3.258938E-19
5730.30396747589  1.385093E-18
5731.69596743584  1.304238E-18
5733.08796739579  1.037756E-18
5734.47996735573  9.871589E-19
5735.87196731568  2.018023E-18
5737.26396727562  3.008846E-19
5738.65596723557  1.689735E-18
5740.04796719551  6.210293E-19
5741.43996715546  1.583992E-18
5742.8319671154  1.159926E-18
5744.22396707535  1.038326E-18
5745.61596703529  7.391386E-19
5747.00796699524  1.307481E-18
5748.39996695519  2.530763E-18
5749.79196691513  -9.475042E-19
5751.18396687508  1.627033E-18
5752.57596683502  1.859885E-18
5753.96796679497  2.299571E-18
5755.35996675492  2.263400E-18
5756.75196671486  1.878675E-18
5758.14396667481  3.770953E-19
5759.53596663475  -7.004806E-19
5760.9279665947  -6.874284E-20
5762.31996655464  1.413739E-18
5763.71196651459  2.551259E-19
5765.10396647453  1.123932E-18
5766.49596643448  -1.397627E-18
5767.88796639443  -6.864492E-19
5769.27996635437  1.835885E-19
5770.67196631432  5.456731E-19
5772.06396627426  3.708483E-19
5773.45596623421  5.595918E-19
5774.84796619415  1.868654E-18
5776.2399661541  3.099571E-18
5777.63196611405  1.529947E-18
5779.02396607399  8.026506E-19
5780.41596603394  6.601550E-19
5781.80796599388  -3.761794E-19
5783.19996595383  1.466340E-18
5784.59196591377  7.063935E-19
5785.98396587372  -1.089351E-18
5787.37596583366  -9.146959E-19
5788.76796579361  -1.784936E-19
5790.15996575356  7.596668E-19
5791.5519657135  2.066427E-18
5792.94396567345  -1.689270E-18
5794.33596563339  1.431664E-18
5795.72796559334  1.746175E-18
5797.11996555329  8.143793E-19
5798.51196551323  -6.364157E-19
5799.90396547318  6.005435E-19
5801.29596543312  3.489069E-19
5802.68796539307  1.450996E-19
5804.07996535301  -7.150532E-20
5805.47196531296  1.184602E-18
5806.8639652729  1.610177E-18
5808.25596523285  8.242375E-19
5809.6479651928  3.466410E-19
5811.03996515274  1.639932E-18
5812.43196511269  -5.999098E-19
5813.82396507263  7.338149E-19
5815.21596503258  2.059164E-19
5816.60796499252  3.324937E-19
5817.99996495247  1.196697E-19
5819.39196491242  -8.861627E-19
5820.78396487236  4.319090E-19
5822.17596483231  -6.825976E-19
5823.56796479225  6.565466E-19
5824.9599647522  8.851184E-19
5826.35196471215  -2.097236E-19
5827.74396467209  1.681458E-18
5829.13596463204  8.270484E-19
5830.52796459198  1.896362E-19
5831.91996455193  -3.666570E-19
5833.31196451187  -8.441925E-20
5834.70396447182  -2.006106E-19
5836.09596443176  -2.136619E-19
5837.48796439171  6.224590E-19
5838.87996435166  3.886158E-19
5840.2719643116  -9.329448E-19
5841.66396427155  1.105059E-18
5843.05596423149  2.434642E-19
5844.44796419144  -2.622040E-19
5845.83996415138  1.820302E-19
5847.23196411133  1.021071E-18
5848.62396407127  1.077543E-18
5850.01596403122  4.227627E-19
5851.40796399117  3.637405E-19
5852.79996395111  1.529408E-18
5854.19196391106  1.354824E-18
5855.583963871  4.259029E-19
5856.97596383095  8.416753E-19
5858.3679637909  6.178984E-19
5859.75996375084  6.148833E-19
5861.15196371079  6.744112E-19
5862.54396367073  -1.312806E-19
5863.93596363068  9.566809E-19
5865.32796359062  1.221696E-18
5866.71996355057  9.240443E-19
5868.11196351051  4.831805E-19
5869.50396347046  1.487168E-18
5870.89596343041  9.963811E-19
5872.28796339035  -2.074365E-19
5873.6799633503  -4.866928E-19
5875.07196331024  3.636321E-19
5876.46396327019  -4.286599E-19
5877.85596323013  -3.826206E-19
5879.24796319008  2.884440E-20
5880.63996315003  6.127244E-19
5882.03196310997  -2.521636E-19
5883.42396306992  -2.651597E-19
5884.81596302986  1.593899E-18
5886.20796298981  9.104728E-19
5887.59996294975  1.810527E-18
5888.9919629097  9.629657E-19
5890.38396286964  -2.217886E-21
5891.77596282959  1.594028E-18
5893.16796278954  7.058615E-19
5894.55996274948  1.079719E-19
5895.95196270943  6.321724E-19
5897.34396266937  1.770932E-19
5898.73596262932  2.140407E-18
5900.12796258926  2.821232E-18
5901.51996254921  1.825237E-18
5902.91196250916  2.784322E-19
5904.3039624691  3.998491E-19
5905.69596242905  4.690119E-19
5907.08796238899  3.327364E-19
5908.47996234894  3.833992E-19
5909.87196230889  6.990269E-19
5911.26396226883  7.142801E-19
5912.65596222878  5.852514E-19
5914.04796218872  1.145878E-18
5915.43996214867  8.499562E-19
5916.83196210861  -9.859398E-20
5918.22396206856  -3.387005E-19
5919.6159620285  1.530350E-18
5921.00796198845  1.793557E-18
5922.3999619484  7.604386E-19
5923.79196190834  8.962521E-19
5925.18396186829  3.452403E-19
5926.57596182823  -5.609405E-19
5927.96796178818  -6.142205E-19
5929.35996174812  -7.906411E-19
5930.75196170807  -2.695237E-19
5932.14396166802  3.216412E-19
5933.53596162796  5.306456E-19
5934.92796158791  3.758719E-19
5936.31996154785  6.021861E-19
5937.7119615078  1.071197E-18
5939.10396146775  2.172461E-19
5940.49596142769  -1.446022E-18
5941.88796138764  -3.236578E-19
5943.27996134758  1.422724E-18
5944.67196130753  2.193242E-18
5946.06396126747  1.587787E-18
5947.45596122742  -4.539048E-19
5948.84796118737  3.630919E-19
5950.23996114731  7.369417E-19
5951.63196110726  1.244078E-18
5953.0239610672  7.722520E-19
5954.41596102715  1.244504E-18
5955.80796098709  1.831518E-18
5957.19996094704  2.096721E-18
5958.59196090698  1.092040E-18
5959.98396086693  9.564413E-19
5961.37596082687  1.523221E-19
5962.76796078682  3.695104E-19
5964.15996074677  1.091974E-18
5965.55196070671  1.337309E-18
5966.94396066666  6.674681E-19
5968.3359606266  1.153645E-18
5969.72796058655  -1.106716E-18
5971.1199605465  6.718644E-19
5972.51196050644  1.597088E-18
5973.90396046639  9.355346E-19
5975.29596042633  -1.363502E-19
5976.68796038628  8.325564E-19
5978.07996034622  4.017924E-19
5979.47196030617  -6.031122E-19
5980.86396026611  1.759819E-18
5982.25596022606  -7.698495E-19
5983.64796018601  -4.745048E-19
5985.03996014595  7.592020E-19
5986.4319601059  4.969443E-19
5987.82396006584  3.210786E-19
5989.21596002579  1.660948E-18
5990.60795998573  -8.305916E-20
5991.99995994568  1.541065E-18
5993.39195990563  3.726597E-18
5994.78395986557  1.188932E-18
5996.17595982552  1.940936E-18
5997.56795978546  6.682794E-19
5998.95995974541  1.862889E-18
6000.35195970535  2.406123E-18
6001.7439596653  1.864599E-18
6003.13595962524  1.050021E-18
6004.52795958519  6.847270E-19
6005.91995954514  5.466650E-19
6007.31195950508  1.233985E-18
6008.70395946503  1.395778E-18
6010.09595942497  -1.673971E-19
6011.48795938492  1.011063E-18
6012.87995934487  1.404193E-18
6014.27195930481  -1.387788E-18
6015.66395926476  8.879482E-19
6017.0559592247  1.364651E-18
6018.44795918465  1.549432E-18
6019.83995914459  5.992520E-19
6021.23195910454  1.360439E-18
6022.62395906448  4.724141E-19
6024.01595902443  1.790031E-18
6025.40795898438  1.444990E-18
6026.79995894432  -2.986138E-19
6028.19195890427  -3.919395E-19
6029.58395886421  -1.616249E-18
6030.97595882416  4.266528E-19
6032.36795878411  -7.431155E-19
6033.75995874405  -7.333217E-19
6035.151958704  -1.655562E-19
6036.54395866394  1.614496E-18
6037.93595862389  1.182174E-18
6039.32795858383  1.216343E-18
6040.71995854378  4.650746E-19
6042.11195850372  6.893604E-20
6043.50395846367  -8.341237E-19
6044.89595842362  -4.868175E-19
6046.28795838356  1.553631E-18
6047.67995834351  1.249023E-18
6049.07195830345  1.023066E-18
6050.4639582634  1.832876E-18
6051.85595822335  3.477606E-19
6053.24795818329  1.244216E-18
6054.63995814324  1.702479E-19
6056.03195810318  1.731305E-19
6057.42395806313  5.710395E-19
6058.81595802307  1.185468E-18
6060.20795798302  2.146605E-19
6061.59995794297  6.128052E-19
6062.99195790291  8.100208E-19
6064.38395786286  6.125811E-19
6065.7759578228  1.402019E-18
6067.16795778275  8.755276E-19
6068.55995774269  -6.176656E-19
6069.95195770264  -8.748176E-19
6071.34395766258  5.118569E-20
6072.73595762253  4.935940E-19
6074.12795758247  4.226300E-19
6075.51995754242  4.749084E-19
6076.91195750237  -1.303244E-18
6078.30395746231  2.969160E-19
6079.69595742226  1.482140E-18
6081.0879573822  1.450830E-18
6082.47995734215  1.197779E-18
6083.8719573021  2.010470E-18
6085.26395726204  -1.709858E-20
6086.65595722199  -3.823544E-19
6088.04795718193  3.224980E-19
6089.43995714188  4.500831E-19
6090.83195710182  3.365853E-19
6092.22395706177  1.361063E-19
6093.61595702171  1.901198E-18
6095.00795698166  1.311260E-18
6096.39995694161  -7.401666E-19
6097.79195690155  -3.904087E-19
6099.1839568615  8.946675E-19
6100.57595682144  9.529696E-19
6101.96795678139  7.180355E-19
6103.35995674134  6.711558E-19
6104.75195670128  1.064391E-19
6106.14395666123  -1.592038E-19
6107.53595662117  1.066651E-18
6108.92795658112  2.813414E-19
6110.31995654106  3.868642E-19
6111.71195650101  8.639382E-19
6113.10395646095  1.686280E-18
6114.4959564209  4.300017E-19
6115.88795638085  4.359552E-19
6117.27995634079  -2.041077E-19
6118.67195630074  -7.866001E-19
6120.06395626068  -2.168503E-18
6121.45595622063  -5.651561E-19
6122.84795618057  -9.293688E-21
6124.23995614052  5.724485E-19
6125.63195610047  -2.385671E-20
6127.02395606041  -8.002377E-19
6128.41595602036  -5.832532E-19
6129.8079559803  -8.524159E-21
6131.19995594025  9.295793E-19
6132.59195590019  7.625193E-20
6133.98395586014  -3.244302E-19
6135.37595582009  -5.320980E-19
6136.76795578003  1.037001E-18
6138.15995573998  7.705075E-19
6139.55195569992  1.360200E-18
6140.94395565987  1.490701E-18
6142.33595561981  6.861810E-20
6143.72795557976  -3.546852E-19
6145.11995553971  -1.383309E-18
6146.51195549965  1.315507E-19
6147.9039554596  1.848038E-18
6149.29595541954  6.141714E-19
6150.68795537949  4.099402E-19
6152.07995533943  1.488861E-18
6153.47195529938  5.639807E-19
6154.86395525933  2.051745E-18
6156.25595521927  1.037249E-18
6157.64795517922  1.702313E-18
6159.03995513916  4.511794E-19
6160.43195509911  1.382287E-18
6161.82395505905  8.340982E-19
6163.215955019  1.098071E-18
6164.60795497895  1.488715E-18
6165.99995493889  -3.734851E-19
6167.39195489884  1.429770E-19
6168.78395485878  1.238279E-18
6170.17595481873  -1.647968E-19
6171.56795477867  1.411020E-19
6172.95995473862  8.625228E-19
6174.35195469857  7.543062E-19
6175.74395465851  -6.828865E-20
6177.13595461846  1.472187E-18
6178.5279545784  4.726344E-19
6179.91995453835  1.311266E-18
6181.31195449829  9.229092E-19
6182.70395445824  8.274598E-19
6184.09595441819  7.575566E-19
6185.48795437813  9.759437E-19
6186.87995433808  5.923011E-19
6188.27195429802  1.656829E-18
6189.66395425797  2.640868E-18
6191.05595421791  1.821755E-18
6192.44795417786  1.710323E-18
6193.83995413781  1.494066E-18
6195.23195409775  1.411181E-18
6196.6239540577  1.104011E-18
6198.01595401764  1.238404E-18
6199.40795397759  1.575887E-18
6200.79995393753  1.353506E-18
6202.19195389748  1.057774E-18
6203.58395385742  1.545379E-18
6204.97595381737  1.320616E-18
6206.36795377732  1.771296E-18
6207.75995373726  2.491555E-18
6209.15195369721  2.557765E-18
6210.54395365715  9.306605E-19
6211.9359536171  -1.560230E-19
6213.32795357704  1.149656E-18
6214.71995353699  1.682699E-18
6216.11195349694  1.600154E-18
6217.50395345688  5.296565E-19
6218.89595341683  2.685327E-18
6220.28795337677  2.470962E-18
6221.67995333672  1.716575E-18
6223.07195329666  1.237839E-18
6224.46395325661  1.398983E-18
6225.85595321655  5.296147E-19
6227.2479531765  1.044469E-18
6228.63995313645  1.759352E-18
6230.03195309639  2.093008E-18
6231.42395305634  1.991547E-18
6232.81595301628  5.008537E-19
6234.20795297623  1.540937E-19
6235.59995293618  6.381350E-19
6236.99195289612  1.337953E-18
6238.38395285607  1.762334E-18
6239.77595281601  1.664604E-18
6241.16795277596  2.910738E-18
6242.5599527359  2.756820E-18
6243.95195269585  2.695045E-18
6245.34395265579  2.646559E-18
6246.73595261574  2.148534E-18
6248.12795257568  1.711418E-18
6249.51995253563  2.279108E-18
6250.91195249558  2.389696E-18
6252.30395245552  1.778633E-18
6253.69595241547  1.613706E-18
6255.08795237541  1.553401E-18
6256.47995233536  3.839389E-19
6257.87195229531  2.214165E-18
6259.26395225525  3.056134E-18
6260.6559522152  3.214743E-18
6262.04795217514  5.483175E-19
6263.43995213509  1.956387E-18
6264.83195209503  2.486909E-18
6266.22395205498  2.914640E-18
6267.61595201493  2.646866E-18
6269.00795197487  3.124725E-18
6270.39995193482  1.384782E-18
6271.79195189476  1.627583E-18
6273.18395185471  1.799265E-18
6274.57595181465  2.062256E-18
6275.9679517746  2.107910E-18
6277.35995173455  2.551290E-18
6278.75195169449  3.489695E-18
6280.14395165444  3.658435E-18
6281.53595161438  2.685819E-18
6282.92795157433  2.517297E-18
6284.31995153427  2.907666E-18
6285.71195149422  1.563084E-18
6287.10395145417  1.193604E-18
6288.49595141411  2.383354E-18
6289.88795137406  1.955927E-18
6291.279951334  1.892120E-18
6292.67195129395  2.699260E-18
6294.06395125389  3.281552E-18
6295.45595121384  2.308424E-18
6296.84795117379  2.963114E-18
6298.23995113373  1.414264E-18
6299.63195109368  1.365120E-18
6301.02395105362  2.212120E-18
6302.41595101357  3.613643E-18
6303.80795097351  3.277614E-18
6305.19995093346  3.080495E-18
6306.5919508934  4.017579E-18
6307.98395085335  4.998602E-18
6309.3759508133  4.516325E-18
6310.76795077324  5.937894E-18
6312.15995073319  4.285190E-18
6313.55195069313  4.410889E-18
6314.94395065308  4.715805E-18
6316.33595061302  4.521036E-18
6317.72795057297  3.953516E-18
6319.11995053292  4.962212E-18
6320.51195049286  4.499823E-18
6321.90395045281  3.568637E-18
6323.29595041275  4.385561E-18
6324.6879503727  4.286002E-18
6326.07995033264  5.056724E-18
6327.47195029259  5.892441E-18
6328.86395025253  5.378495E-18
6330.25595021248  5.222459E-18
6331.64795017243  4.622619E-18
6333.03995013237  3.671660E-18
6334.43195009232  4.374720E-18
6335.82395005226  5.280573E-18
6337.21595001221  6.124840E-18
6338.60794997215  5.804718E-18
6339.9999499321  4.516998E-18
6341.39194989205  4.880525E-18
6342.78394985199  4.673435E-18
6344.17594981194  3.237438E-18
6345.56794977188  4.554803E-18
6346.95994973183  5.206429E-18
6348.35194969177  4.085599E-18
6349.74394965172  3.389215E-18
6351.13594961167  3.935831E-18
6352.52794957161  4.972303E-18
6353.91994953156  4.333596E-18
6355.3119494915  4.891085E-18
6356.70394945145  4.520254E-18
6358.09594941139  4.770922E-18
6359.48794937134  4.725155E-18
6360.87994933129  3.979076E-18
6362.27194929123  3.791204E-18
6363.66394925118  2.346997E-18
6365.05594921112  3.194667E-18
6366.44794917107  4.208322E-18
6367.83994913102  3.608863E-18
6369.23194909096  2.951346E-18
6370.62394905091  2.847100E-18
6372.01594901085  3.947103E-18
6373.4079489708  4.781380E-18
6374.79994893074  4.010633E-18
6376.19194889069  3.843436E-18
6377.58394885063  4.966055E-18
6378.97594881058  2.813156E-18
6380.36794877053  3.083434E-18
6381.75994873047  5.087698E-18
6383.15194869042  2.872386E-18
6384.54394865036  4.592533E-18
6385.93594861031  4.141107E-18
6387.32794857025  2.551342E-18
6388.7199485302  3.111056E-18
6390.11194849015  3.021342E-18
6391.50394845009  2.562359E-18
6392.89594841004  2.157212E-18
6394.28794836998  3.234562E-18
6395.67994832993  2.340704E-18
6397.07194828987  2.972601E-18
6398.46394824982  4.568016E-18
6399.85594820976  3.138858E-18
6401.24794816971  3.137781E-18
6402.63994812966  4.575990E-18
6404.0319480896  4.510827E-18
6405.42394804955  2.144487E-18
6406.81594800949  2.441262E-18
6408.20794796944  3.312598E-18
6409.59994792939  2.421648E-18
6410.99194788933  1.919779E-18
6412.38394784928  3.934505E-18
6413.77594780922  2.817957E-18
6415.16794776917  3.624047E-18
6416.55994772911  3.040485E-18
6417.95194768906  2.387680E-18
6419.343947649  2.703347E-18
6420.73594760895  4.077981E-18
6422.12794756889  3.997927E-18
6423.51994752884  3.052766E-18
6424.91194748879  2.894283E-18
6426.30394744873  2.452618E-18
6427.69594740868  2.113369E-18
6429.08794736862  2.303244E-18
6430.47994732857  2.696017E-18
6431.87194728852  2.256085E-18
6433.26394724846  1.156929E-18
6434.65594720841  1.326494E-18
6436.04794716835  1.400856E-18
6437.4399471283  9.981488E-20
6438.83194708824  1.480200E-18
6440.22394704819  2.462666E-18
6441.61594700813  2.211868E-18
6443.00794696808  3.060811E-18
6444.39994692803  2.849795E-18
6445.79194688797  2.689741E-18
6447.18394684792  9.581144E-19
6448.57594680786  5.178666E-19
6449.96794676781  1.333385E-18
6451.35994672775  4.953085E-19
6452.7519466877  1.236858E-19
6454.14394664765  3.697969E-19
6455.53594660759  1.338376E-18
6456.92794656754  1.643677E-18
6458.31994652748  3.019851E-19
6459.71194648743  1.345003E-18
6461.10394644738  2.785272E-18
6462.49594640732  1.021341E-18
6463.88794636727  1.073495E-18
6465.27994632721  6.945921E-19
6466.67194628716  1.910296E-18
6468.0639462471  1.898611E-18
6469.45594620705  3.443916E-19
6470.84794616699  1.152568E-18
6472.23994612694  1.831304E-18
6473.63194608689  2.658207E-18
6475.02394604683  2.134151E-18
6476.41594600678  9.312444E-19
6477.80794596672  1.021523E-18
6479.19994592667  1.189810E-18
6480.59194588661  1.101532E-18
6481.98394584656  1.639128E-18
6483.37594580651  2.093397E-18
6484.76794576645  2.783940E-18
6486.1599457264  1.296518E-18
6487.55194568634  3.623730E-18
6488.94394564629  3.143506E-19
6490.33594560623  1.159814E-18
6491.72794556618  1.053350E-18
6493.11994552613  1.286538E-18
6494.51194548607  2.208903E-18
6495.90394544602  2.885252E-18
6497.29594540596  2.451950E-18
6498.68794536591  2.119027E-18
6500.07994532585  1.549754E-18
6501.4719452858  2.000568E-18
6502.86394524575  3.815308E-19
6504.25594520569  1.328420E-18
6505.64794516564  1.928625E-18
6507.03994512558  -3.358150E-19
6508.43194508553  2.381726E-19
6509.82394504547  8.409761E-19
6511.21594500542  7.708616E-19
6512.60794496537  1.616758E-18
6513.99994492531  2.032402E-18
6515.39194488526  1.365641E-18
6516.7839448452  1.912232E-18
6518.17594480515  2.287786E-18
6519.56794476509  2.252321E-18
6520.95994472504  2.637600E-18
6522.35194468499  1.087062E-18
6523.74394464493  1.595383E-18
6525.13594460488  1.674197E-18
6526.52794456482  1.296631E-18
6527.91994452477  1.171635E-18
6529.31194448471  5.233265E-19
6530.70394444466  1.379404E-18
6532.0959444046  2.019595E-18
6533.48794436455  1.191121E-18
6534.8799443245  9.143805E-19
6536.27194428444  5.796511E-19
6537.66394424439  1.303966E-18
6539.05594420433  1.881543E-18
6540.44794416428  1.385981E-18
6541.83994412423  8.117098E-19
6543.23194408417  1.581770E-18
6544.62394404411  1.560740E-18
6546.01594400406  1.571967E-18
6547.40794396401  1.798455E-18
6548.79994392395  1.765366E-18
6550.1919438839  1.227248E-18
6551.58394384384  7.359768E-19
6552.97594380379  1.585269E-18
6554.36794376373  3.225800E-18
6555.75994372368  2.613483E-19
6557.15194368363  7.336249E-20
6558.54394364357  2.787215E-18
6559.93594360352  2.201682E-18
6561.32794356346  1.618416E-18
6562.71994352341  1.115891E-18
6564.11194348335  1.530450E-18
6565.5039434433  9.900837E-19
6566.89594340325  5.494590E-19
6568.28794336319  9.186080E-19
6569.67994332314  1.019470E-18
6571.07194328308  1.541509E-18
6572.46394324303  1.239014E-18
6573.85594320297  1.378977E-18
6575.24794316292  1.269602E-18
6576.63994312287  1.094798E-18
6578.03194308281  3.184455E-18
6579.42394304276  2.582390E-18
6580.8159430027  1.116646E-18
6582.20794296265  2.166966E-18
6583.59994292259  1.933434E-18
6584.99194288254  1.989845E-18
6586.38394284249  2.288693E-18
6587.77594280243  1.259485E-18
6589.16794276238  9.028098E-19
6590.55994272232  3.811133E-19
6591.95194268227  -2.060429E-19
6593.34394264221  8.464576E-19
6594.73594260216  2.366780E-18
6596.12794256211  9.928404E-19
6597.51994252205  4.264312E-19
6598.911942482  5.137808E-19
6600.30394244194  7.139951E-19
6601.69594240189  2.479923E-18
6603.08794236183  1.580015E-18
6604.47994232178  7.777529E-19
6605.87194228173  1.130228E-18
6607.26394224167  1.774721E-18
6608.65594220162  1.462861E-18
6610.04794216156  2.128218E-18
6611.43994212151  1.529785E-18
6612.83194208145  1.198808E-18
6614.2239420414  1.635176E-18
6615.61594200134  1.980744E-18
6617.00794196129  1.520330E-18
6618.39994192124  2.278829E-18
6619.79194188118  3.228846E-18
6621.18394184113  2.736251E-18
6622.57594180107  2.268641E-18
6623.96794176102  2.251407E-18
6625.35994172096  1.756314E-18
6626.75194168091  9.362613E-19
6628.14394164086  3.897867E-19
6629.5359416008  1.351776E-18
6630.92794156075  1.743727E-18
6632.31994152069  1.042794E-18
6633.71194148064  9.746324E-19
6635.10394144059  1.336354E-18
6636.49594140053  8.980460E-19
6637.88794136048  1.383836E-18
6639.27994132042  1.797502E-18
6640.67194128037  3.509247E-18
6642.06394124031  2.294458E-18
6643.45594120026  3.092932E-18
6644.8479411602  9.196977E-19
6646.23994112015  7.921134E-19
6647.6319410801  6.373016E-19
6649.02394104004  1.036890E-18
6650.41594099999  1.802788E-18
6651.80794095993  1.970161E-18
6653.19994091988  1.767588E-18
6654.59194087982  1.842409E-18
6655.98394083977  2.171584E-18
6657.37594079971  1.651868E-18
6658.76794075966  1.368581E-18
6660.15994071961  1.283768E-18
6661.55194067955  1.741690E-18
6662.9439406395  1.364073E-18
6664.33594059944  1.791953E-18
6665.72794055939  1.198180E-18
6667.11994051934  1.120886E-18
6668.51194047928  4.231569E-18
6669.90394043923  8.223938E-19
6671.29594039917  1.136624E-18
6672.68794035912  2.208055E-18
6674.07994031906  1.745411E-18
6675.47194027901  1.549111E-18
6676.86394023895  8.450902E-19
6678.2559401989  1.247628E-18
6679.64794015885  1.858794E-18
6681.03994011879  1.534559E-18
6682.43194007874  6.425547E-19
6683.82394003868  1.476510E-18
6685.21593999863  9.362824E-19
6686.60793995857  6.472629E-20
6687.99993991852  1.025021E-18
6689.39193987847  1.436008E-18
6690.78393983841  1.195370E-18
6692.17593979836  2.145145E-18
6693.5679397583  2.099578E-18
6694.95993971825  1.707869E-18
6696.3519396782  1.747084E-18
6697.74393963814  1.289363E-18
6699.13593959809  1.105263E-18
6700.52793955803  1.340278E-18
6701.91993951798  6.016160E-19
6703.31193947792  1.319237E-19
6704.70393943787  5.084651E-19
6706.09593939781  1.912726E-18
6707.48793935776  3.732942E-18
6708.87993931771  1.410483E-18
6710.27193927765  2.582533E-18
6711.6639392376  2.831336E-18
6713.05593919754  2.484412E-18
6714.44793915749  1.029378E-18
6715.83993911743  1.026692E-18
6717.23193907738  2.559837E-18
6718.62393903733  1.285724E-18
6720.01593899727  1.612721E-18
6721.40793895722  7.694203E-19
6722.79993891716  1.158507E-18
6724.19193887711  2.353756E-18
6725.58393883705  2.215375E-18
6726.975938797  1.590959E-18
6728.36793875694  1.360143E-18
6729.75993871689  7.550916E-19
6731.15193867684  1.207511E-18
6732.54393863678  1.040650E-18
6733.93593859673  7.864283E-19
6735.32793855667  1.122924E-18
6736.71993851662  1.069257E-18
6738.11193847656  6.431827E-19
6739.50393843651  1.110052E-18
6740.89593839646  1.777653E-18
6742.2879383564  1.371574E-18
6743.67993831635  1.720712E-18
6745.07193827629  2.251047E-18
6746.46393823624  2.793163E-18
6747.85593819619  2.108833E-18
6749.24793815613  1.398033E-18
6750.63993811608  -8.653761E-20
6752.03193807602  -1.389892E-19
6753.42393803597  3.877600E-19
6754.81593799591  4.321249E-19
6756.20793795586  1.294375E-18
6757.5999379158  7.105225E-19
6758.99193787575  9.766199E-19
6760.3839378357  8.437296E-19
6761.77593779564  -4.651935E-19
6763.16793775559  9.426076E-19
6764.55993771553  1.714114E-18
6765.95193767548  2.063420E-18
6767.34393763542  1.033081E-18
6768.73593759537  8.422401E-19
6770.12793755531  6.570218E-19
6771.51993751526  1.041580E-18
6772.91193747521  2.842011E-19
6774.30393743515  7.142811E-19
6775.6959373951  1.189046E-18
6777.08793735504  1.599491E-18
6778.47993731499  7.922438E-19
6779.87193727494  8.334786E-19
6781.26393723488  1.583371E-18
6782.65593719483  2.446005E-18
6784.04793715477  1.154861E-18
6785.43993711472  7.873311E-19
6786.83193707466  1.042852E-18
6788.22393703461  1.056548E-18
6789.61593699455  6.577601E-19
6791.0079369545  1.528567E-18
6792.39993691445  1.128477E-18
6793.79193687439  1.038545E-18
6795.18393683434  1.272187E-18
6796.57593679428  2.171957E-18
6797.96793675423  1.174272E-18
6799.35993671417  2.644010E-18
6800.75193667412  7.167213E-19
6802.14393663407  4.391382E-19
6803.53593659401  7.112935E-19
6804.92793655396  1.087253E-18
6806.3199365139  7.029427E-19
6807.71193647385  5.608158E-19
6809.1039364338  1.867147E-18
6810.49593639374  1.821371E-18
6811.88793635369  2.384019E-18
6813.27993631363  2.510296E-18
6814.67193627358  2.569440E-18
6816.06393623352  1.373502E-18
6817.45593619347  2.701116E-18
6818.84793615341  8.108955E-19
6820.23993611336  1.087057E-19
6821.63193607331  2.405982E-18
6823.02393603325  3.019307E-18
6824.4159359932  9.537711E-19
6825.80793595314  6.553034E-19
6827.19993591309  1.112057E-18
6828.59193587303  5.692596E-19
6829.98393583298  6.876541E-19
6831.37593579293  -3.525788E-19
6832.76793575287  1.112620E-18
6834.15993571282  2.192605E-18
6835.55193567276  2.397346E-18
6836.94393563271  1.019121E-18
6838.33593559265  6.032743E-20
6839.7279355526  4.691402E-20
6841.11993551255  -8.252743E-20
6842.51193547249  -2.752059E-19
6843.90393543244  1.064366E-18
6845.29593539238  1.758764E-18
6846.68793535233  2.171746E-18
6848.07993531227  1.137879E-18
6849.47193527222  -7.310018E-20
6850.86393523216  6.083819E-20
6852.25593519211  1.419293E-18
6853.64793515206  1.131253E-18
6855.039935112  3.730391E-20
6856.43193507195  1.066850E-18
6857.82393503189  1.773645E-18
6859.21593499184  8.231577E-19
6860.60793495179  1.040520E-18
6861.99993491173  8.673245E-19
6863.39193487168  1.527835E-18
6864.78393483162  1.063216E-19
6866.17593479157  -8.909783E-19
6867.56793475151  4.007625E-19
6868.95993471146  -4.229697E-19
6870.3519346714  4.145451E-20
6871.74393463135  -1.016056E-18
6873.13593459129  1.189128E-18
6874.52793455124  9.169546E-19
6875.91993451119  1.168097E-19
6877.31193447113  5.367383E-19
6878.70393443108  -1.024440E-19
6880.09593439102  8.840776E-19
6881.48793435097  1.907312E-19
6882.87993431092  9.626604E-19
6884.27193427086  7.142745E-19
6885.66393423081  8.138306E-19
6887.05593419075  3.015373E-18
6888.4479341507  1.346880E-18
6889.83993411064  1.240938E-18
6891.23193407059  2.159953E-18
6892.62393403053  1.049190E-18
6894.01593399048  2.095181E-18
6895.40793395043  2.627431E-18
6896.79993391037  1.864688E-18
6898.19193387032  1.346836E-18
6899.58393383026  2.234763E-18
6900.97593379021  5.349992E-19
6902.36793375015  1.448470E-18
6903.7599337101  2.110594E-18
6905.15193367005  8.242659E-19
6906.54393362999  5.078127E-19
6907.93593358994  1.341571E-19
6909.32793354988  1.010333E-19
6910.71993350983  -4.239687E-19
6912.11193346977  3.596742E-19
6913.50393342972  9.221874E-19
6914.89593338967  8.920666E-19
6916.28793334961  3.200321E-19
6917.67993330956  6.316803E-19
6919.0719332695  1.553568E-18
6920.46393322945  1.590556E-18
6921.85593318939  1.467950E-18
6923.24793314934  4.727915E-19
6924.63993310929  2.387544E-20
6926.03193306923  2.785961E-19
6927.42393302918  3.440845E-19
6928.81593298912  6.192462E-19
6930.20793294907  1.215226E-19
6931.59993290901  5.293549E-19
6932.99193286896  1.023720E-18
6934.38393282891  9.181096E-19
6935.77593278885  5.866323E-19
6937.1679327488  8.837444E-19
6938.55993270874  1.107188E-18
6939.95193266869  3.933184E-19
6941.34393262863  1.018307E-18
6942.73593258858  3.642696E-19
6944.12793254852  1.674383E-18
6945.51993250847  2.497589E-18
6946.91193246842  7.782854E-19
6948.30393242836  8.176986E-19
6949.69593238831  2.082696E-18
6951.08793234825  3.792963E-19
6952.4799323082  -6.714375E-19
6953.87193226815  1.125411E-18
6955.26393222809  1.472103E-18
6956.65593218804  1.573846E-18
6958.04793214798  5.963096E-20
6959.43993210793  -7.926001E-19
6960.83193206787  4.031978E-19
6962.22393202782  7.658118E-19
6963.61593198776  1.281264E-18
6965.00793194771  1.059759E-18
6966.39993190766  4.300103E-19
6967.7919318676  -3.656306E-19
6969.18393182755  -1.138750E-18
6970.57593178749  8.790367E-19
6971.96793174744  1.118609E-18
6973.35993170738  5.933311E-19
6974.75193166733  9.057494E-19
6976.14393162728  4.169171E-19
6977.53593158722  1.228318E-18
6978.92793154717  2.255912E-19
6980.31993150711  -5.224301E-19
6981.71193146706  1.400515E-19
6983.10393142701  1.091160E-18
6984.49593138695  4.677500E-19
6985.8879313469  1.431035E-19
6987.27993130684  5.087758E-19
6988.67193126679  1.361387E-18
6990.06393122673  1.608020E-20
6991.45593118668  -2.798261E-19
6992.84793114662  6.030490E-19
6994.23993110657  5.058043E-19
6995.63193106652  8.547081E-19
6997.02393102646  1.768666E-18
6998.41593098641  1.707063E-18
6999.80793094635  1.321273E-18
7001.1999309063  5.648531E-19
7002.59193086624  1.416231E-18
7003.98393082619  7.008037E-19
7005.37593078613  1.263486E-19
7006.76793074608  1.113318E-18
7008.15993070603  1.179534E-18
7009.55193066597  1.116268E-18
7010.94393062592  1.291232E-18
7012.33593058586  1.373120E-18
7013.72793054581  5.440185E-19
7015.11993050575  5.509539E-19
7016.5119304657  8.760155E-19
7017.90393042565  1.266628E-18
7019.29593038559  2.329482E-19
7020.68793034554  -2.731987E-19
7022.07993030548  1.761473E-19
7023.47193026543  1.391672E-18
7024.86393022537  1.053543E-18
7026.25593018532  1.199291E-18
7027.64793014527  1.175494E-18
7029.03993010521  1.197974E-18
7030.43193006516  1.377168E-18
7031.8239300251  4.110646E-19
7033.21592998505  1.955998E-18
7034.60792994499  1.424541E-18
7035.99992990494  1.479310E-18
7037.39192986489  -3.021590E-19
7038.78392982483  -1.297060E-18
7040.17592978478  7.602464E-19
7041.56792974472  1.346648E-19
7042.95992970467  -4.885678E-19
7044.35192966461  -1.366947E-18
7045.74392962456  -7.639066E-20
7047.13592958451  -4.414721E-19
7048.52792954445  -5.768171E-19
7049.9199295044  2.423588E-19
7051.31192946434  6.366099E-20
7052.70392942429  -1.061659E-18
7054.09592938424  -5.771580E-19
7055.48792934418  6.179650E-19
7056.87992930413  -1.182253E-19
7058.27192926407  1.613794E-19
7059.66392922402  -1.027208E-19
7061.05592918396  -1.621488E-19
7062.44792914391  8.079539E-19
7063.83992910386  1.973861E-19
7065.2319290638  4.349871E-19
7066.62392902375  8.337605E-19
7068.01592898369  1.327494E-18
7069.40792894364  9.940321E-19
7070.79992890358  1.212484E-18
7072.19192886353  8.363988E-19
7073.58392882348  2.212165E-19
7074.97592878342  3.847114E-19
7076.36792874336  1.546875E-18
7077.75992870331  1.249896E-18
7079.15192866326  8.176645E-19
7080.5439286232  9.589476E-19
7081.93592858315  1.158262E-18
7083.32792854309  1.726959E-18
7084.71992850304  1.812431E-19
7086.11192846299  1.546344E-18
7087.50392842293  8.695572E-19
7088.89592838288  1.899367E-19
7090.28792834282  8.572968E-19
7091.67992830277  1.000943E-18
7093.07192826272  1.338660E-18
7094.46392822266  1.138661E-18
7095.8559281826  4.711852E-19
7097.24792814255  2.690308E-19
7098.6399281025  5.920607E-20
7100.03192806244  -1.295719E-19
7101.42392802239  1.269506E-18
7102.81592798233  3.616046E-19
7104.20792794228  9.351051E-19
7105.59992790222  1.392788E-18
7106.99192786217  7.751335E-20
7108.38392782212  8.889280E-19
7109.77592778206  1.345586E-18
7111.16792774201  8.412183E-19
7112.55992770195  1.289430E-18
7113.9519276619  3.935997E-19
7115.34392762185  4.863900E-19
7116.73592758179  6.206512E-19
7118.12792754174  4.283262E-19
7119.51992750168  2.606992E-19
7120.91192746163  5.975990E-20
7122.30392742157  9.454014E-20
7123.69592738152  1.346403E-18
7125.08792734146  6.532695E-19
7126.47992730141  8.333387E-19
7127.87192726136  9.924464E-19
7129.2639272213  7.162548E-19
7130.65592718125  -1.604545E-20
7132.04792714119  8.610772E-19
7133.43992710114  2.120025E-18
7134.83192706108  1.609497E-18
7136.22392702103  1.319758E-18
7137.61592698098  7.788401E-19
7139.00792694092  9.314885E-19
7140.39992690087  8.121638E-19
7141.79192686081  2.872069E-19
7143.18392682076  6.887951E-19
7144.5759267807  4.050689E-19
7145.96792674065  -1.321683E-19
7147.35992670059  7.273060E-19
7148.75192666054  -3.179069E-20
7150.14392662049  -1.165325E-19
7151.53592658043  -3.113805E-19
7152.92792654038  1.169731E-18
7154.31992650032  2.112084E-18
7155.71192646027  2.464847E-18
7157.10392642021  2.205712E-18
7158.49592638016  6.629867E-19
7159.88792634011  8.819771E-19
7161.27992630005  1.801186E-18
7162.67192626  3.987436E-19
7164.06392621994  2.304352E-19
7165.45592617989  1.238525E-18
7166.84792613984  1.081874E-18
7168.23992609978  1.925636E-18
7169.63192605973  1.507377E-18
7171.02392601967  1.791711E-18
7172.41592597962  1.761533E-18
7173.80792593956  3.038870E-18
7175.19992589951  3.403057E-18
7176.59192585946  1.447548E-18
7177.9839258194  1.115175E-18
7179.37592577935  1.615548E-18
7180.76792573929  1.525512E-18
7182.15992569924  1.596926E-18
7183.55192565918  1.666159E-18
7184.94392561913  1.913304E-18
7186.33592557908  2.949645E-18
7187.72792553902  1.771934E-18
7189.11992549896  1.376986E-18
7190.51192545891  1.808910E-18
7191.90392541886  1.841749E-18
7193.2959253788  1.909225E-18
7194.68792533875  9.779402E-19
7196.07992529869  1.092559E-18
7197.47192525864  6.786884E-19
7198.86392521859  1.318347E-18
7200.25592517853  9.593225E-19
7201.64792513848  1.023416E-18
7203.03992509842  1.594196E-18
7204.43192505837  1.675153E-18
7205.82392501831  1.541950E-18
7207.21592497826  1.657994E-18
7208.6079249382  7.682171E-19
7209.99992489815  4.344204E-19
7211.3919248581  1.440212E-19
7212.78392481804  3.112971E-20
7214.17592477799  3.236458E-19
7215.56792473793  9.649696E-19
7216.95992469788  1.569902E-18
7218.35192465782  1.185831E-18
7219.74392461777  1.143265E-18
7221.13592457772  1.736320E-18
7222.52792453766  2.247371E-18
7223.91992449761  1.562997E-18
7225.31192445755  1.648891E-18
7226.7039244175  1.690946E-18
7228.09592437744  2.349882E-18
7229.48792433739  2.122502E-18
7230.87992429734  2.058838E-18
7232.27192425728  2.978706E-18
7233.66392421723  3.862262E-18
7235.05592417717  4.797802E-18
7236.44792413712  3.053858E-18
7237.83992409706  4.121085E-18
7239.23192405701  3.587499E-18
7240.62392401696  2.386936E-18
7242.0159239769  4.680382E-18
7243.40792393685  5.821767E-18
7244.79992389679  7.154973E-18
7246.19192385674  5.505203E-18
7247.58392381668  5.712840E-18
7248.97592377663  5.006736E-18
7250.36792373657  4.378383E-18
7251.75992369652  5.674684E-18
7253.15192365647  5.421472E-18
7254.54392361641  5.957203E-18
7255.93592357636  6.842881E-18
7257.3279235363  8.158290E-18
7258.71992349625  9.302739E-18
7260.1119234562  8.809549E-18
7261.50392341614  8.158124E-18
7262.89592337609  7.991650E-18
7264.28792333603  8.611001E-18
7265.67992329598  1.012305E-17
7267.07192325592  1.077943E-17
7268.46392321587  9.825553E-18
7269.85592317581  1.027194E-17
7271.24792313576  1.001528E-17
7272.63992309571  1.036714E-17
7274.03192305565  1.231399E-17
7275.4239230156  1.479402E-17
7276.81592297554  1.449278E-17
7278.20792293549  1.333833E-17
7279.59992289544  1.401900E-17
7280.99192285538  1.443130E-17
7282.38392281533  1.408467E-17
7283.77592277527  1.584004E-17
7285.16792273522  1.624675E-17
7286.55992269516  1.571693E-17
7287.95192265511  1.703223E-17
7289.34392261506  1.860058E-17
7290.735922575  2.065947E-17
7292.12792253495  2.042516E-17
7293.51992249489  2.076480E-17
7294.91192245484  2.175176E-17
7296.30392241478  2.331923E-17
7297.69592237473  2.283496E-17
7299.08792233467  2.428993E-17
7300.47992229462  2.325454E-17
7301.87192225457  2.472711E-17
7303.26392221451  2.635989E-17
7304.65592217446  2.729486E-17
7306.0479221344  2.568173E-17
7307.43992209435  2.636022E-17
7308.83192205429  2.835280E-17
7310.22392201424  2.935607E-17
7311.61592197419  3.013118E-17
7313.00792193413  2.945608E-17
7314.39992189408  3.065255E-17
7315.79192185402  3.022901E-17
7317.18392181397  3.007257E-17
7318.57592177391  3.095074E-17
7319.96792173386  3.190553E-17
7321.3599216938  3.407686E-17
7322.75192165375  3.405786E-17
7324.1439216137  3.493962E-17
7325.53592157364  3.380700E-17
7326.92792153359  3.417616E-17
7328.31992149353  3.606741E-17
7329.71192145348  3.711512E-17
7331.10392141342  3.817753E-17
7332.49592137337  3.881799E-17
7333.88792133332  3.752801E-17
7335.27992129326  3.756330E-17
7336.67192125321  3.766628E-17
7338.06392121315  3.882354E-17
7339.4559211731  3.805886E-17
7340.84792113304  3.897648E-17
7342.23992109299  3.884329E-17
7343.63192105294  3.717695E-17
7345.02392101288  3.731549E-17
7346.41592097283  3.682463E-17
7347.80792093277  3.466563E-17
7349.19992089272  3.422286E-17
7350.59192085267  3.400499E-17
7351.98392081261  3.282006E-17
7353.37592077256  3.222763E-17
7354.7679207325  3.211907E-17
7356.15992069245  3.193631E-17
7357.55192065239  3.108373E-17
7358.94392061234  2.982399E-17
7360.33592057228  2.785442E-17
7361.72792053223  2.809228E-17
7363.11992049217  2.784114E-17
7364.51192045212  2.729029E-17
7365.90392041207  2.512391E-17
7367.29592037201  2.392227E-17
7368.68792033196  2.304960E-17
7370.0799202919  2.048134E-17
7371.47192025185  1.765326E-17
7372.86392021179  1.747068E-17
7374.25592017174  1.792216E-17
7375.64792013169  1.590112E-17
7377.03992009163  1.286285E-17
7378.43192005158  1.322757E-17
7379.82392001152  1.199061E-17
7381.21591997147  1.062736E-17
7382.60791993142  1.002828E-17
7383.99991989136  1.133255E-17
7385.39191985131  1.134964E-17
7386.78391981125  9.628128E-18
7388.1759197712  1.000115E-17
7389.56791973114  8.517469E-18
7390.95991969109  8.947809E-18
7392.35191965104  8.015752E-18
7393.74391961098  7.625570E-18
7395.13591957093  6.747680E-18
7396.52791953087  6.043753E-18
7397.91991949082  6.630223E-18
7399.31191945076  6.945881E-18
7400.70391941071  5.409467E-18
7402.09591937066  5.150474E-18
7403.4879193306  6.005386E-18
7404.87991929055  6.582432E-18
7406.27191925049  5.254993E-18
7407.66391921044  6.093686E-18
7409.05591917038  6.003209E-18
7410.44791913033  4.435249E-18
7411.83991909027  4.879284E-18
7413.23191905022  4.541684E-18
7414.62391901017  3.707700E-18
7416.01591897011  3.585965E-18
7417.40791893006  4.232775E-18
7418.79991889  3.878546E-18
7420.19191884995  3.844721E-18
7421.58391880989  5.125370E-18
7422.97591876984  4.556548E-18
7424.36791872978  4.685878E-18
7425.75991868973  4.767379E-18
7427.15191864968  4.360123E-18
7428.54391860962  3.360035E-18
7429.93591856957  3.719928E-18
7431.32791852951  5.272975E-18
7432.71991848946  4.031586E-18
7434.11191844941  3.134729E-18
7435.50391840935  2.841801E-18
7436.8959183693  3.075936E-18
7438.28791832924  3.435585E-18
7439.67991828919  3.480426E-18
7441.07191824913  2.906679E-18
7442.46391820908  3.217394E-18
7443.85591816902  2.935575E-18
7445.24791812897  2.244131E-18
7446.63991808892  2.844896E-18
7448.03191804886  1.711863E-18
7449.42391800881  3.034163E-18
7450.81591796875  3.711375E-18
7452.2079179287  3.335352E-18
7453.59991788864  3.153979E-18
7454.99191784859  4.322256E-18
7456.38391780854  3.014840E-18
7457.77591776848  1.129062E-18
7459.16791772843  1.847052E-18
7460.55991768837  2.513436E-18
7461.95191764832  3.336989E-18
7463.34391760827  3.196306E-18
7464.73591756821  2.945879E-18
7466.12791752816  1.958652E-18
7467.5199174881  2.641325E-18
7468.91191744805  1.859497E-18
7470.30391740799  3.175415E-18
7471.69591736794  2.702617E-18
7473.08791732788  2.471594E-18
7474.47991728783  3.144787E-18
7475.87191724778  2.761446E-18
7477.26391720772  2.781077E-18
7478.65591716767  2.627373E-18
7480.04791712761  1.657627E-18
7481.43991708756  2.256618E-18
7482.8319170475  1.923771E-18
7484.22391700745  2.197487E-18
7485.61591696739  2.990919E-18
7487.00791692734  3.190336E-18
7488.39991688729  3.612067E-18
7489.79191684723  2.775860E-18
7491.18391680718  1.994203E-18
7492.57591676712  2.828531E-18
7493.96791672707  1.929301E-18
7495.35991668701  1.110137E-18
7496.75191664696  2.394610E-18
7498.14391660691  2.881393E-18
7499.53591656685  3.488195E-18
7500.9279165268  2.785431E-18
7502.31991648674  1.254543E-18
7503.71191644669  1.712610E-18
7505.10391640664  6.139999E-19
7506.49591636658  1.421513E-18
7507.88791632653  1.950684E-18
7509.27991628647  2.569211E-18
7510.67191624642  2.816573E-18
7512.06391620636  3.706899E-18
7513.45591616631  3.277369E-18
7514.84791612626  2.071203E-18
7516.2399160862  2.878636E-18
7517.63191604615  1.071276E-18
7519.02391600609  5.887931E-19
7520.41591596604  1.405803E-18
7521.80791592598  1.506471E-18
7523.19991588593  3.233834E-18
7524.59191584588  5.795150E-19
7525.98391580582  1.429610E-18
7527.37591576577  6.256382E-19
7528.76791572571  3.744489E-19
7530.15991568566  9.162398E-19
7531.5519156456  1.777816E-18
7532.94391560555  2.912637E-18
7534.33591556549  2.858488E-18
7535.72791552544  1.474921E-18
7537.11991548538  9.802418E-19
7538.51191544533  7.969517E-20
7539.90391540528  1.021559E-18
7541.29591536522  1.439047E-18
7542.68791532517  1.750121E-18
7544.07991528511  1.331985E-18
7545.47191524506  7.219307E-19
7546.863915205  7.682157E-19
7548.25591516495  1.539807E-18
7549.6479151249  2.472332E-18
7551.03991508484  1.665872E-18
7552.43191504479  1.043805E-18
7553.82391500473  2.128563E-18
7555.21591496468  1.985896E-18
7556.60791492462  1.908134E-18
7557.99991488457  1.597089E-18
7559.39191484452  6.052093E-19
7560.78391480446  8.655332E-19
7562.17591476441  2.027542E-18
7563.56791472435  2.524774E-18
7564.9599146843  1.216886E-18
7566.35191464424  1.207822E-18
7567.74391460419  2.989652E-18
7569.13591456414  2.827212E-18
7570.52791452408  2.087052E-18
7571.91991448403  9.186101E-19
7573.31191444397  1.936047E-19
7574.70391440392  3.457261E-19
7576.09591436386  1.794340E-18
7577.48791432381  2.955998E-18
7578.87991428376  3.085140E-18
7580.2719142437  2.607477E-18
7581.66391420365  1.304593E-18
7583.05591416359  1.539033E-18
7584.44791412354  2.042766E-18
7585.83991408348  1.887331E-18
7587.23191404343  5.231574E-19
7588.62391400338  1.803535E-18
7590.01591396332  1.261055E-18
7591.40791392327  2.538331E-18
7592.79991388321  -1.050965E-19
7594.19191384316  2.011592E-19
7595.5839138031  1.951445E-18
7596.97591376305  1.450033E-18
7598.367913723  2.672207E-18
7599.75991368294  2.678018E-18
7601.15191364289  1.415400E-18
7602.54391360283  2.175746E-18
7603.93591356278  3.906440E-18
7605.32791352272  2.630187E-18
7606.71991348267  2.802215E-18
7608.11191344262  1.383486E-18
7609.50391340256  -4.196606E-20
7610.89591336251  1.815020E-18
7612.28791332245  2.199222E-18
7613.6799132824  3.451331E-19
7615.07191324234  1.522197E-19
7616.46391320229  -1.402034E-19
7617.85591316223  -1.280351E-19
7619.24791312218  -8.423238E-20
7620.63991308213  5.638887E-19
7622.03191304207  1.368632E-18
7623.42391300202  -2.064898E-19
7624.81591296196  -3.273863E-19
7626.20791292191  -1.696361E-19
7627.59991288185  -6.932577E-20
7628.9919128418  1.283682E-18
7630.38391280175  1.920572E-18
7631.77591276169  8.871247E-19
7633.16791272164  3.791182E-19
7634.55991268158  3.801866E-19
7635.95191264153  1.586131E-18
7637.34391260148  2.670432E-19
7638.73591256142  -1.429340E-19
7640.12791252137  1.930549E-18
7641.51991248131  1.896011E-18
7642.91191244126  2.168295E-18
7644.3039124012  9.365543E-19
7645.69591236115  7.539124E-19
7647.08791232109  1.457427E-18
7648.47991228104  1.960310E-18
7649.87191224099  1.076167E-18
7651.26391220093  3.294504E-19
7652.65591216088  1.215702E-18
7654.04791212082  1.636889E-18
7655.43991208077  1.649652E-18
7656.83191204071  7.939336E-19
7658.22391200066  1.376620E-18
7659.6159119606  4.139034E-19
7661.00791192055  9.841791E-19
7662.3999118805  2.648573E-18
7663.79191184044  2.351476E-18
7665.18391180039  7.415320E-19
7666.57591176033  5.050324E-19
7667.96791172028  3.675106E-19
7669.35991168022  -6.315886E-20
7670.75191164017  3.995914E-19
7672.14391160012  -2.371701E-20
7673.53591156006  9.352397E-19
7674.92791152001  1.275166E-18
7676.31991147995  7.597315E-19
7677.7119114399  1.393141E-19
7679.10391139984  5.246812E-19
7680.49591135979  -5.419281E-19
7681.88791131974  -2.804157E-20
7683.27991127968  8.358241E-19
7684.67191123963  1.112092E-18
7686.06391119957  4.894839E-19
7687.45591115952  6.089503E-19
7688.84791111946  1.544647E-18
7690.23991107941  1.277911E-18
7691.63191103936  3.812091E-19
7693.0239109993  9.428542E-22
7694.41591095925  5.654931E-19
7695.80791091919  7.524329E-19
7697.19991087914  2.291702E-18
7698.59191083908  1.727668E-18
7699.98391079903  9.278741E-19
7701.37591075897  4.286844E-19
7702.76791071892  9.735078E-19
7704.15991067887  1.806351E-18
7705.55191063881  2.222984E-18
7706.94391059876  8.772542E-19
7708.3359105587  4.179848E-19
7709.72791051865  1.277548E-18
7711.1199104786  2.364553E-18
7712.51191043854  6.822415E-19
7713.90391039849  9.340114E-19
7715.29591035843  1.317209E-18
7716.68791031838  7.249524E-19
7718.07991027832  6.344667E-19
7719.47191023827  9.496217E-19
7720.86391019822  1.148510E-18
7722.25591015816  -9.912202E-20
7723.64791011811  1.365467E-18
7725.03991007805  5.858001E-19
7726.431910038  6.710645E-19
7727.82390999794  1.503124E-18
7729.21590995789  2.739467E-19
7730.60790991783  -7.180977E-19
7731.99990987778  5.635308E-19
7733.39190983773  6.060354E-19
7734.78390979767  1.452729E-18
7736.17590975762  2.199927E-18
7737.56790971756  2.951468E-18
7738.95990967751  1.480823E-18
7740.35190963745  1.098258E-18
7741.7439095974  2.125895E-18
7743.13590955735  1.018190E-18
7744.52790951729  5.102430E-19
7745.91990947724  1.971801E-18
7747.31190943718  3.407505E-19
7748.70390939713  5.718082E-19
7750.09590935708  3.496489E-19
7751.48790931702  5.700356E-19
7752.87990927697  -4.982136E-19
7754.27190923691  -9.901549E-20
7755.66390919686  8.689462E-19
7757.0559091568  7.922788E-19
7758.44790911675  1.695844E-19
7759.83990907669  1.316194E-18
7761.23190903664  1.014695E-18
7762.62390899659  4.354671E-19
7764.01590895653  3.137380E-19
7765.40790891648  1.577917E-18
7766.79990887642  1.203496E-18
7768.19190883637  5.884540E-19
7769.58390879631  1.687802E-18
7770.97590875626  1.888508E-18
7772.3679087162  1.966176E-18
7773.75990867615  1.380341E-18
7775.1519086361  1.060601E-18
7776.54390859604  1.096822E-18
7777.93590855599  1.423545E-18
7779.32790851593  1.999280E-18
7780.71990847588  1.903926E-18
7782.11190843583  1.787177E-18
7783.50390839577  1.413452E-18
7784.89590835572  2.255948E-19
7786.28790831566  8.993014E-19
7787.67990827561  2.141923E-18
7789.07190823555  2.375211E-18
7790.4639081955  2.101899E-18
7791.85590815544  8.086802E-19
7793.24790811539  1.819476E-18
7794.63990807534  3.592342E-19
7796.03190803528  2.695073E-18
7797.42390799523  3.631769E-18
7798.81590795517  2.169151E-18
7800.20790791512  2.958729E-18
7801.59990787506  3.593211E-19
7802.99190783501  4.034955E-19
7804.38390779496  1.859120E-18
7805.7759077549  1.567590E-18
7807.16790771485  1.838676E-18
7808.55990767479  -3.429840E-19
7809.95190763474  2.630655E-18
7811.34390759468  9.833094E-19
7812.73590755463  2.946895E-18
7814.12790751457  1.406617E-18
7815.51990747452  1.657368E-18
7816.91190743447  1.892172E-18
7818.30390739441  1.150925E-18
7819.69590735436  1.033150E-18
7821.0879073143  2.251630E-18
7822.47990727425  2.073596E-18
7823.8719072342  1.831273E-18
7825.26390719414  1.135313E-18
7826.65590715409  3.077045E-19
7828.04790711403  9.754497E-19
7829.43990707398  1.073056E-18
7830.83190703392  2.660839E-18
7832.22390699387  2.766572E-18
7833.61590695382  2.073538E-18
7835.00790691376  1.226970E-18
7836.39990687371  1.266649E-18
7837.79190683365  1.182722E-18
7839.1839067936  1.890146E-18
7840.57590675354  1.507580E-18
7841.96790671349  -5.308851E-19
7843.35990667343  -1.587351E-18
7844.75190663338  4.739248E-19
7846.14390659333  1.875359E-18
7847.53590655327  2.700932E-18
7848.92790651322  2.143108E-18
7850.31990647316  1.932654E-18
7851.71190643311  2.040259E-18
7853.10390639305  3.352262E-18
7854.495906353  2.585090E-18
7855.88790631295  1.371862E-18
7857.27990627289  8.309975E-19
7858.67190623284  1.611922E-18
7860.06390619278  1.802846E-18
7861.45590615273  1.341518E-18
7862.84790611268  1.666065E-18
7864.23990607262  3.223036E-18
7865.63190603257  1.329599E-18
7867.02390599251  1.182837E-18
7868.41590595246  1.185260E-18
7869.8079059124  1.879642E-18
7871.19990587235  1.156317E-18
7872.59190583229  1.278164E-18
7873.98390579224  1.668786E-18
7875.37590575218  1.415501E-18
7876.76790571213  8.645594E-19
7878.15990567208  1.160189E-18
7879.55190563202  8.842135E-19
7880.94390559197  1.188863E-18
7882.33590555191  1.927034E-18
7883.72790551186  1.074070E-18
7885.1199054718  4.830316E-19
7886.51190543175  1.322713E-18
7887.9039053917  1.610986E-18
7889.29590535164  2.408116E-18
7890.68790531159  2.073580E-18
7892.07990527153  2.387007E-18
7893.47190523148  2.318021E-18
7894.86390519142  1.218834E-18
7896.25590515137  2.157055E-18
7897.64790511132  1.234511E-18
7899.03990507126  1.203262E-18
7900.43190503121  8.539322E-19
7901.82390499115  1.459179E-18
7903.2159049511  2.147889E-18
7904.60790491104  1.246551E-18
7905.99990487099  9.126966E-19
7907.39190483094  1.224321E-18
7908.78390479088  1.592856E-18
7910.17590475083  5.983581E-19
7911.56790471077  8.767601E-19
7912.95990467072  9.923913E-19
7914.35190463066  1.154278E-18
7915.74390459061  3.704653E-19
7917.13590455056  1.739499E-18
7918.5279045105  3.263088E-18
7919.91990447045  3.208986E-18
7921.31190443039  2.511518E-18
7922.70390439034  1.545095E-18
7924.09590435028  1.227825E-18
7925.48790431023  2.306199E-18
7926.87990427018  7.399893E-19
7928.27190423012  1.096253E-18
7929.66390419007  1.447379E-18
7931.05590415001  2.102965E-18
7932.44790410996  2.481424E-19
7933.8399040699  7.541436E-19
7935.23190402985  7.747613E-19
7936.6239039898  1.001758E-18
7938.01590394974  1.456360E-19
7939.40790390969  1.578871E-18
7940.79990386963  2.347807E-18
7942.19190382958  1.904601E-18
7943.58390378952  1.250181E-18
7944.97590374947  2.297525E-18
7946.36790370941  -3.693834E-19
7947.75990366936  -2.201430E-19
7949.15190362931  -1.248771E-18
7950.54390358925  -2.624520E-19
7951.9359035492  1.979460E-18
7953.32790350914  2.197416E-18
7954.71990346909  1.430485E-18
7956.11190342904  2.172120E-18
7957.50390338898  1.994556E-18
7958.89590334893  1.691836E-18
7960.28790330887  -4.602450E-19
7961.67990326882  1.323270E-18
7963.07190322876  2.010894E-18
7964.46390318871  1.488842E-18
7965.85590314865  7.462628E-19
7967.2479031086  1.050203E-18
7968.63990306855  1.309498E-18
7970.03190302849  1.273569E-18
7971.42390298844  1.430343E-18
7972.81590294838  1.126019E-18
7974.20790290833  1.418438E-18
7975.59990286827  2.505449E-18
7976.99190282822  1.945059E-18
7978.38390278817  1.343693E-18
7979.77590274811  8.765317E-19
7981.16790270806  8.578865E-19
7982.559902668  2.945972E-19
7983.95190262795  2.558250E-19
7985.34390258789  6.867328E-19
7986.73590254784  1.698753E-18
7988.12790250778  2.010143E-18
7989.51990246773  1.957513E-18
7990.91190242768  1.959798E-18
7992.30390238762  2.274812E-18
7993.69590234757  1.011830E-18
7995.08790230751  1.597690E-19
7996.47990226746  1.849502E-19
7997.87190222741  5.166845E-19
7999.26390218735  1.163331E-19
8000.6559021473  6.288421E-19
8002.04790210724  8.380117E-19
8003.43990206719  4.847193E-19
8004.83190202713  1.107714E-18
8006.22390198708  1.111404E-18
8007.61590194703  1.697711E-18
8009.00790190697  1.067107E-18
8010.39990186692  1.561959E-18
8011.79190182686  1.064309E-18
8013.18390178681  1.040322E-18
8014.57590174675  2.775454E-18
8015.9679017067  2.559980E-18
8017.35990166664  1.719330E-18
8018.75190162659  1.569082E-18
8020.14390158654  -3.217846E-19
8021.53590154648  1.855273E-19
8022.92790150643  -5.691554E-19
8024.31990146637  1.860058E-18
8025.71190142632  1.313759E-18
8027.10390138627  1.360172E-18
8028.49590134621  1.937886E-18
8029.88790130616  1.750134E-18
8031.2799012661  9.572163E-19
8032.67190122605  2.620449E-18
8034.06390118599  3.385289E-18
8035.45590114594  1.714501E-18
8036.84790110588  4.634536E-18
8038.23990106583  1.317322E-18
8039.63190102578  1.119051E-18
8041.02390098572  2.555518E-18
8042.41590094567  1.860347E-18
8043.80790090561  1.467318E-18
8045.19990086556  1.326587E-18
8046.5919008255  1.422690E-18
8047.98390078545  2.030228E-18
8049.3759007454  1.975441E-18
8050.76790070534  8.930318E-19
8052.15990066529  1.154612E-18
8053.55190062523  1.170359E-18
8054.94390058518  1.431213E-18
8056.33590054513  1.215548E-18
8057.72790050507  9.023072E-19
8059.11990046502  1.305373E-18
8060.51190042496  1.491713E-18
8061.90390038491  9.605485E-19
8063.29590034485  1.106277E-18
8064.6879003048  3.690555E-19
8066.07990026474  4.846179E-19
8067.47190022469  2.309198E-18
8068.86390018464  2.837664E-18
8070.25590014458  1.255419E-18
8071.64790010453  1.965070E-18
8073.03990006447  2.711516E-18
8074.43190002442  8.663177E-19
8075.82389998436  8.976164E-19
8077.21589994431  3.792786E-19
8078.60789990425  7.660549E-20
8079.9998998642  7.953527E-19
8081.39189982415  7.968054E-19
8082.78389978409  1.036467E-18
8084.17589974404  4.386657E-19
8085.56789970398  8.254825E-19
8086.95989966393  3.062056E-19
8088.35189962387  1.806753E-18
8089.74389958382  1.461597E-18
8091.13589954377  1.293072E-18
8092.52789950371  1.847815E-18
8093.91989946366  3.079732E-19
8095.3118994236  1.957773E-18
8096.70389938355  1.971485E-18
8098.09589934349  3.975819E-19
8099.48789930344  1.221916E-18
8100.87989926339  6.445169E-19
8102.27189922333  9.362342E-19
8103.66389918328  1.247423E-18
8105.05589914322  5.511274E-19
8106.44789910317  1.164289E-18
8107.83989906311  2.025025E-18
8109.23189902306  1.417670E-18
8110.62389898301  7.417397E-19
8112.01589894295  1.260822E-18
8113.4078989029  2.066689E-18
8114.79989886284  7.445135E-19
8116.19189882279  4.263405E-19
8117.58389878274  7.159625E-19
8118.97589874268  6.328724E-19
8120.36789870263  1.143682E-18
8121.75989866257  1.491920E-18
8123.15189862252  8.898422E-19
8124.54389858246  1.383973E-18
8125.93589854241  2.173973E-18
8127.32789850235  2.534672E-18
8128.7198984623  1.949388E-18
8130.11189842224  1.129475E-18
8131.50389838219  7.093638E-19
8132.89589834214  8.711378E-19
8134.28789830208  1.387562E-18
8135.67989826203  1.845976E-18
8137.07189822197  1.548501E-18
8138.46389818192  7.229970E-19
8139.85589814186  -6.345365E-20
8141.24789810181  6.174413E-19
8142.63989806176  5.089191E-19
8144.0318980217  6.798049E-20
8145.42389798165  -2.280242E-19
8146.81589794159  7.055273E-19
8148.20789790154  1.189279E-18
8149.59989786148  8.839141E-19
8150.99189782143  1.227604E-18
8152.38389778138  9.903765E-19
8153.77589774132  1.081794E-18
8155.16789770127  1.463149E-18
8156.55989766121  1.733170E-18
8157.95189762116  -1.007278E-18
8159.3438975811  1.889928E-20
8160.73589754105  1.220833E-18
8162.127897501  1.316015E-18
8163.51989746094  1.714960E-18
8164.91189742089  -1.940535E-19
8166.30389738083  1.287214E-18
8167.69589734078  2.921965E-18
8169.08789730072  7.343080E-19
8170.47989726067  1.394891E-18
8171.87189722062  2.470933E-18
8173.26389718056  1.696849E-18
8174.65589714051  8.745430E-19
8176.04789710045  9.892466E-19
8177.4398970604  -5.992322E-19
8178.83189702034  1.602553E-19
8180.22389698029  3.327679E-19
8181.61589694024  6.847249E-19
8183.00789690018  1.482261E-18
8184.39989686013  1.305760E-18
8185.79189682007  2.052543E-18
8187.18389678002  1.053191E-18
8188.57589673996  -1.569798E-19
8189.96789669991  2.189842E-18
8191.35989665985  1.433300E-18
8192.7518966198  1.104116E-18
8194.14389657975  1.319646E-18
8195.53589653969  1.277256E-18
8196.92789649964  6.177143E-19
8198.31989645958  5.872391E-19
8199.71189641953  1.107762E-18
8201.10389637948  1.079994E-18
8202.49589633942  3.498485E-19
8203.88789629937  5.204670E-19
8205.27989625931  8.070034E-19
8206.67189621926  1.448483E-18
8208.0638961792  2.493623E-18
8209.45589613915  1.267923E-18
8210.84789609909  1.508771E-19
8212.23989605904  5.705402E-19
8213.63189601899  3.965380E-19
8215.02389597893  1.726836E-18
8216.41589593888  7.247793E-19
8217.80789589882  7.592353E-19
8219.19989585877  4.836479E-19
8220.59189581871  8.764198E-19
8221.98389577866  1.902959E-18
8223.37589573861  8.343554E-19
8224.76789569855  -4.627878E-19
8226.1598956585  1.176741E-19
8227.55189561844  3.967033E-19
8228.94389557839  8.151548E-19
8230.33589553834  1.012423E-18
8231.72789549828  1.694793E-18
8233.11989545823  2.070703E-18
8234.51189541817  3.526059E-19
8235.90389537812  1.340822E-18
8237.29589533806  1.174580E-18
8238.68789529801  6.963030E-19
8240.07989525795  -5.959612E-20
8241.4718952179  -8.233242E-19
8242.86389517784  5.281367E-19
8244.25589513779  7.160704E-19
8245.64789509774  -1.238121E-18
8247.03989505768  2.999372E-19
8248.43189501763  6.073246E-19
8249.82389497757  2.207920E-18
8251.21589493752  1.841787E-18
8252.60789489746  1.159964E-18
8253.99989485741  2.602334E-18
8255.39189481736  1.065070E-18
8256.7838947773  3.216493E-19
8258.17589473725  6.241211E-20
8259.56789469719  1.344070E-19
8260.95989465714  -8.279397E-20
8262.35189461708  -2.112820E-19
8263.74389457703  8.438816E-19
8265.13589453698  1.134005E-19
8266.52789449692  6.457402E-19
8267.91989445687  4.496846E-19
8269.31189441681  1.133593E-20
8270.70389437676  -3.196246E-20
8272.0958943367  1.499341E-18
8273.48789429665  1.313220E-18
8274.8798942566  2.365946E-19
8276.27189421654  -1.029678E-18
8277.66389417649  6.479514E-20
8279.05589413643  -6.136586E-19
8280.44789409638  2.280915E-18
8281.83989405632  1.913224E-18
8283.23189401627  1.785474E-18
8284.62389397622  2.547265E-18
8286.01589393616  4.546386E-19
8287.40789389611  -8.699849E-19
8288.79989385605  7.319593E-19
8290.191893816  1.443854E-18
8291.58389377595  -5.753023E-20
8292.97589373589  3.100587E-19
8294.36789369584  1.747420E-18
8295.75989365578  6.926222E-19
8297.15189361573  1.234744E-18
8298.54389357567  1.035404E-18
8299.93589353562  1.012431E-18
8301.32789349556  5.824121E-19
8302.71989345551  3.028600E-19
8304.11189341545  2.367390E-18
8305.5038933754  2.628246E-18
8306.89589333535  1.736967E-18
8308.28789329529  1.564997E-18
8309.67989325524  1.113412E-18
8311.07189321518  -8.172035E-20
8312.46389317513  -1.525432E-19
8313.85589313507  2.770216E-19
8315.24789309502  2.193348E-19
8316.63989305497  -1.061091E-18
8318.03189301491  -4.495140E-19
8319.42389297486  -7.066139E-20
8320.8158929348  6.276908E-19
8322.20789289475  1.829222E-18
8323.59989285469  2.364466E-18
8324.99189281464  2.041128E-18
8326.38389277459  1.992823E-18
8327.77589273453  2.584787E-18
8329.16789269448  1.161205E-18
8330.55989265442  7.334934E-19
8331.95189261437  8.691032E-19
8333.34389257431  -7.676913E-19
8334.73589253426  -1.302443E-18
8336.12789249421  -1.305227E-18
8337.51989245415  -4.912262E-19
8338.9118924141  -7.816208E-19
8340.30389237404  -2.432250E-19
8341.69589233399  1.223421E-18
8343.08789229393  2.895143E-18
8344.47989225388  3.011481E-18
8345.87189221383  3.423554E-18
8347.26389217377  3.187891E-18
8348.65589213372  2.286316E-18
8350.04789209366  1.660727E-18
8351.43989205361  8.742397E-19
8352.83189201355  1.143099E-18
8354.2238919735  -3.447730E-19
8355.61589193345  -2.931029E-19
8357.00789189339  -5.532224E-19
8358.39989185333  -5.029936E-19
8359.79189181328  -3.948916E-19
8361.18389177323  -3.948188E-19
8362.57589173317  9.748617E-19
8363.96789169312  5.870978E-19
8365.35989165306  1.200982E-18
8366.75189161301  1.863629E-18
8368.14389157296  8.899724E-19
8369.5358915329  -1.094278E-19
8370.92789149285  6.707687E-19
8372.31989145279  6.202947E-19
8373.71189141274  1.207492E-18
8375.10389137269  1.996071E-18
8376.49589133263  2.005090E-18
8377.88789129258  1.213410E-18
8379.27989125252  9.211085E-19
8380.67189121247  9.806305E-19
8382.06389117241  1.004118E-18
8383.45589113236  9.516038E-20
8384.8478910923  -2.326606E-19
8386.23989105225  -1.597422E-19
8387.63189101219  7.150570E-19
8389.02389097214  2.090247E-18
8390.41589093209  1.422958E-18
8391.80789089203  4.336836E-19
8393.19989085198  1.093784E-18
8394.59189081192  8.042567E-19
8395.98389077187  7.162257E-19
8397.37589073182  8.101365E-19
8398.76789069176  1.526757E-18
8400.15989065171  5.639444E-19
8401.55189061165  -9.656504E-19
8402.9438905716  -1.870759E-18
8404.33589053155  -1.891108E-18
8405.72789049149  -2.031520E-18
8407.11989045144  -1.204018E-18
8408.51189041138  6.860876E-19
8409.90389037133  2.458822E-18
8411.29589033127  2.407826E-18
8412.68789029122  1.255163E-18
8414.07989025116  1.465065E-18
8415.47189021111  2.506949E-18
8416.86389017105  1.930735E-18
8418.255890131  2.093136E-18
8419.64789009095  4.693603E-19
8421.03989005089  -2.870559E-19
8422.43189001084  -2.542150E-19
8423.82388997078  1.635286E-18
8425.21588993073  1.929137E-18
8426.60788989067  8.560337E-19
8427.99988985062  8.331431E-19
8429.39188981057  -3.995808E-19
8430.78388977051  3.134822E-18
8432.17588973046  3.364090E-18
8433.5678896904  3.061724E-18
8434.95988965035  1.586545E-18
8436.35188961029  6.504489E-19
8437.74388957024  8.887931E-19
8439.13588953019  2.688282E-18
8440.52788949013  1.339797E-18
8441.91988945008  1.023888E-18
8443.31188941002  -3.218035E-19
8444.70388936997  1.039103E-19
8446.09588932991  1.075874E-18
8447.48788928986  1.083440E-18
8448.87988924981  -2.587833E-19
8450.27188920975  1.756343E-18
8451.6638891697  3.169249E-18
8453.05588912964  2.507022E-18
8454.44788908959  -2.157121E-19
8455.83988904953  -8.319025E-20
8457.23188900948  5.180752E-19
8458.62388896943  1.414285E-18
8460.01588892937  2.935001E-18
8461.40788888932  1.780318E-18
8462.79988884926  9.322913E-19
8464.19188880921  2.451448E-19
8465.58388876916  7.790588E-19
8466.9758887291  7.702979E-19
8468.36788868905  1.010465E-18
8469.75988864899  1.131700E-18
8471.15188860894  1.227067E-18
8472.54388856888  1.327819E-18
8473.93588852883  2.179833E-18
8475.32788848877  2.342817E-18
8476.71988844872  2.564363E-18
8478.11188840866  1.335857E-18
8479.50388836861  1.049226E-18
8480.89588832856  1.696329E-18
8482.2878882885  1.924235E-18
8483.67988824845  1.918499E-18
8485.07188820839  1.342870E-18
8486.46388816834  7.366414E-19
8487.85588812828  1.332914E-18
8489.24788808823  1.271316E-18
8490.63988804818  1.312504E-18
8492.03188800812  1.970336E-18
8493.42388796807  1.840022E-18
8494.81588792801  2.478976E-18
8496.20788788796  2.613744E-18
8497.5998878479  3.463340E-18
8498.99188780785  4.790957E-18
8500.3838877678  2.649626E-18
8501.77588772774  2.098475E-18
8503.16788768769  1.416984E-18
8504.55988764763  1.554564E-19
8505.95188760758  4.976858E-19
8507.34388756752  4.980222E-21
8508.73588752747  3.675485E-19
8510.12788748742  2.363035E-19
8511.51988744736  -3.727879E-20
8512.91188740731  1.239165E-18
8514.30388736725  5.360810E-19
8515.6958873272  1.852847E-18
8517.08788728714  2.372829E-18
8518.47988724709  1.834057E-18
8519.87188720704  2.899229E-18
8521.26388716698  3.193604E-18
8522.65588712693  2.879357E-18
8524.04788708687  3.228842E-18
8525.43988704682  2.127588E-18
8526.83188700676  4.977089E-19
8528.22388696671  1.116370E-18
8529.61588692665  -2.595587E-19
8531.0078868866  -2.195786E-19
8532.39988684654  -7.125824E-19
8533.79188680649  3.080272E-19
8535.18388676644  1.018605E-18
8536.57588672638  1.419615E-18
8537.96788668633  1.519159E-18
8539.35988664627  9.314692E-19
8540.75188660622  3.351035E-18
8542.14388656617  3.427617E-18
8543.53588652611  1.825080E-18
8544.92788648606  1.437677E-18
8546.319886446  3.148588E-18
8547.71188640595  3.756109E-18
8549.1038863659  2.770516E-18
8550.49588632584  1.224851E-18
8551.88788628579  1.101911E-18
8553.27988624573  -7.702276E-19
8554.67188620568  -1.302033E-18
8556.06388616562  1.373541E-19
8557.45588612557  1.045877E-18
8558.84788608551  9.326954E-19
8560.23988604546  1.518162E-18
8561.6318860054  2.114723E-18
8563.02388596535  1.865112E-18
8564.4158859253  1.342679E-18
8565.80788588524  6.780296E-19
8567.19988584519  5.516514E-19
8568.59188580513  8.984408E-20
8569.98388576508  1.665393E-18
8571.37588572503  2.088479E-18
8572.76788568497  9.935140E-19
8574.15988564492  4.560642E-19
8575.55188560486  9.955741E-19
8576.94388556481  1.917797E-18
8578.33588552476  1.561953E-18
8579.7278854847  6.580384E-19
8581.11988544465  7.634495E-19
8582.51188540459  1.115198E-18
8583.90388536454  1.994058E-18
8585.29588532448  1.399716E-18
8586.68788528443  1.808527E-18
8588.07988524437  2.116947E-18
8589.47188520432  2.526894E-18
8590.86388516426  3.269753E-18
8592.25588512421  3.285416E-18
8593.64788508416  3.212098E-18
8595.0398850441  3.037458E-18
8596.43188500405  2.759429E-18
8597.82388496399  3.274721E-18
8599.21588492394  1.514887E-18
8600.60788488388  3.856990E-19
8601.99988484383  -5.901254E-19
8603.39188480378  -4.995433E-19
8604.78388476372  5.595754E-19
8606.17588472367  9.823536E-19
8607.56788468361  1.541635E-18
8608.95988464356  1.515947E-18
8610.3518846035  1.779509E-18
8611.74388456345  3.609641E-18
8613.1358845234  3.782024E-18
8614.52788448334  3.192453E-18
8615.91988444329  2.659871E-18
8617.31188440323  1.205793E-18
8618.70388436318  1.138021E-18
8620.09588432312  1.504317E-18
8621.48788428307  -7.452941E-19
8622.87988424302  -4.211374E-19
8624.27188420296  1.021422E-18
8625.66388416291  2.337575E-18
8627.05588412285  2.352379E-18
8628.4478840828  4.057489E-18
8629.83988404274  4.528891E-18
8631.23188400269  3.723264E-18
8632.62388396264  3.631094E-18
8634.01588392258  4.522131E-18
8635.40788388253  2.638251E-18
8636.79988384247  2.909989E-18
8638.19188380242  3.958583E-18
8639.58388376236  1.879547E-18
8640.97588372231  6.142957E-19
8642.36788368225  -6.927088E-19
8643.7598836422  7.635798E-19
8645.15188360214  1.525141E-18
8646.54388356209  1.160639E-18
8647.93588352204  3.155525E-18
8649.32788348198  2.702159E-18
8650.71988344193  2.699248E-18
8652.11188340187  4.003959E-18
8653.50388336182  2.898727E-18
8654.89588332177  1.152355E-18
8656.28788328171  3.646964E-18
8657.67988324166  2.606006E-18
8659.0718832016  3.122449E-18
8660.46388316155  3.354090E-18
8661.85588312149  2.594013E-18
8663.24788308144  2.230930E-18
8664.63988304139  2.050705E-18
8666.03188300133  3.617893E-18
8667.42388296128  4.632149E-18
8668.81588292122  3.379715E-18
8670.20788288117  3.166262E-18
8671.59988284111  3.615462E-18
8672.99188280106  3.736829E-18
8674.38388276101  2.286364E-18
8675.77588272095  1.812713E-18
8677.1678826809  2.560678E-18
8678.55988264084  2.377114E-18
8679.95188260079  1.998679E-18
8681.34388256073  2.424066E-18
8682.73588252068  4.023347E-18
8684.12788248063  5.287881E-18
8685.51988244057  4.524782E-18
8686.91188240052  2.674708E-18
8688.30388236046  3.232350E-18
8689.69588232041  2.145336E-18
8691.08788228035  2.892212E-18
8692.4798822403  2.609405E-18
8693.87188220025  1.802041E-18
8695.26388216019  3.055309E-18
8696.65588212014  4.204181E-18
8698.04788208008  4.930019E-18
8699.43988204003  5.793621E-18
8700.83188199997  5.022466E-18
8702.22388195992  4.406610E-18
8703.61588191986  4.413244E-18
8705.00788187981  3.694527E-18
8706.39988183975  3.636298E-18
8707.7918817997  3.341474E-18
8709.18388175965  3.474291E-18
8710.57588171959  4.882053E-18
8711.96788167954  4.190140E-18
8713.35988163948  3.712845E-18
8714.75188159943  3.025211E-18
8716.14388155938  3.062307E-18
8717.53588151932  4.830120E-18
8718.92788147927  3.923264E-18
8720.31988143921  2.982284E-18
8721.71188139916  3.080099E-18
8723.10388135911  2.912839E-18
8724.49588131905  3.488863E-18
8725.887881279  3.552897E-18
8727.27988123894  2.664121E-18
8728.67188119889  2.624746E-18
8730.06388115883  2.620046E-18
8731.45588111878  4.158232E-18
8732.84788107872  3.172735E-18
8734.23988103867  3.339601E-18
8735.63188099861  4.586020E-18
8737.02388095856  3.364571E-18
8738.41588091851  5.150410E-18
8739.80788087845  4.238456E-18
8741.1998808384  2.629993E-18
8742.59188079834  4.192738E-18
8743.98388075829  3.815850E-18
8745.37588071824  5.075548E-18
8746.76788067818  5.528254E-18
8748.15988063813  3.289947E-18
8749.55188059807  3.492143E-18
8750.94388055802  6.152339E-18
8752.33588051797  5.138026E-18
8753.72788047791  4.396849E-18
8755.11988043786  3.606880E-18
8756.5118803978  3.664440E-18
8757.90388035775  4.213043E-18
8759.29588031769  1.818527E-18
8760.68788027764  2.790829E-18
8762.07988023758  1.703046E-18
8763.47188019753  1.272598E-18
8764.86388015747  1.963477E-18
8766.25588011742  3.373515E-18
8767.64788007737  3.029923E-18
8769.03988003731  4.068425E-18
8770.43187999726  6.987071E-18
8771.8238799572  5.868727E-18
8773.21587991715  7.818167E-18
8774.60787987709  5.400403E-18
8775.99987983704  2.738854E-18
8777.39187979699  3.341202E-18
8778.78387975693  3.553042E-18
8780.17587971688  2.960965E-18
8781.56787967682  2.858949E-18
8782.95987963677  2.110612E-18
8784.35187959671  2.535268E-18
8785.74387955666  3.402282E-18
8787.13587951661  3.483713E-18
8788.52787947655  3.202061E-18
8789.9198794365  3.884926E-18
8791.31187939644  4.139528E-18
8792.70387935639  4.197221E-18
8794.09587931633  3.692727E-18
8795.48787927628  2.197908E-18
8796.87987923623  2.036519E-18
8798.27187919617  1.955426E-18
8799.66387915612  2.397896E-18
8801.05587911606  3.046700E-18
8802.44787907601  2.685044E-18
8803.83987903595  2.527539E-18
8805.2318789959  4.477228E-18
8806.62387895585  4.473042E-18
8808.01587891579  4.319058E-18
8809.40787887574  3.710186E-18
8810.79987883568  2.683089E-18
8812.19187879563  2.491576E-18
8813.58387875557  2.155927E-18
8814.97587871552  2.301009E-18
8816.36787867546  1.394882E-18
8817.75987863541  2.522774E-18
8819.15187859535  2.869208E-18
8820.5438785553  3.246576E-18
8821.93587851525  1.603297E-18
8823.32787847519  2.032976E-18
8824.71987843514  2.723045E-18
8826.11187839508  5.021473E-18
8827.50387835503  6.456054E-18
8828.89587831498  8.374504E-18
8830.28787827492  8.555067E-18
8831.67987823487  4.899295E-18
8833.07187819481  4.046148E-18
8834.46387815476  3.107549E-18
8835.8558781147  3.739336E-18
8837.24787807465  2.843423E-18
8838.6398780346  2.494660E-18
8840.03187799454  3.044014E-18
8841.42387795449  1.887495E-18
8842.81587791443  1.753757E-18
8844.20787787438  2.426160E-18
8845.59987783432  2.352527E-18
8846.99187779427  2.921021E-18
8848.38387775422  3.479703E-18
8849.77587771416  3.019084E-18
8851.16787767411  2.740043E-18
8852.55987763405  2.779542E-18
8853.951877594  2.551646E-18
8855.34387755394  2.869999E-18
8856.73587751389  8.166609E-19
8858.12787747384  1.668669E-18
8859.51987743378  2.039774E-18
8860.91187739373  2.561728E-18
8862.30387735367  1.889535E-18
8863.69587731362  1.429397E-18
8865.08787727356  3.082274E-18
8866.47987723351  5.590953E-18
8867.87187719346  3.180675E-18
8869.2638771534  2.603303E-18
8870.65587711335  1.118921E-18
8872.04787707329  3.094754E-18
8873.43987703324  3.984424E-18
8874.83187699318  1.208275E-18
8876.22387695313  2.921326E-18
8877.61587691307  2.857874E-18
8879.00787687302  3.078461E-18
8880.39987683296  2.980336E-18
8881.79187679291  3.566166E-18
8883.18387675286  1.957341E-18
8884.5758767128  5.596898E-21
8885.96787667275  1.743248E-18
8887.35987663269  2.308750E-18
8888.75187659264  6.888990E-19
8890.14387655259  -1.137906E-18
8891.53587651253  5.001289E-18
8892.92787647248  3.090227E-18
8894.31987643242  2.735768E-18
8895.71187639237  2.206930E-18
8897.10387635232  -1.813433E-19
8898.49587631226  7.835679E-19
8899.88787627221  2.246576E-18
8901.27987623215  3.761395E-19
8902.6718761921  -7.307436E-19
8904.06387615204  1.022874E-18
8905.45587611199  7.754107E-19
8906.84787607193  1.473303E-18
8908.23987603188  9.053448E-19
8909.63187599182  6.363850E-19
8911.02387595177  2.471198E-18
8912.41587591172  3.300539E-18
8913.80787587166  1.395941E-18
8915.19987583161  3.846572E-18
8916.59187579155  4.155813E-18
8917.9838757515  2.579337E-18
8919.37587571145  1.677436E-18
8920.76787567139  7.337366E-19
8922.15987563134  -1.708768E-19
8923.55187559128  1.057643E-18
8924.94387555123  1.525961E-18
8926.33587551117  1.270834E-18
8927.72787547112  2.096979E-18
8929.11987543106  1.471932E-18
8930.51187539101  7.434974E-19
8931.90387535096  1.358619E-18
8933.2958753109  2.780768E-18
8934.68787527085  1.285158E-18
8936.07987523079  1.407123E-18
8937.47187519074  5.472614E-19
8938.86387515068  6.462519E-19
8940.25587511063  2.773286E-19
8941.64787507058  1.321754E-18
8943.03987503052  2.927933E-18
8944.43187499047  2.639364E-18
8945.82387495041  1.535615E-18
8947.21587491036  1.845784E-18
8948.6078748703  2.515522E-18
8949.99987483025  1.233936E-18
8951.3918747902  4.756951E-19
8952.78387475014  2.907866E-19
8954.17587471009  -2.983646E-19
8955.56787467003  4.288239E-19
8956.95987462998  1.532058E-18
8958.35187458992  2.129616E-18
8959.74387454987  1.743384E-18
8961.13587450982  6.091225E-19
8962.52787446976  8.100949E-19
8963.91987442971  6.885518E-19
8965.31187438965  -9.042073E-19
8966.7038743496  1.166186E-19
8968.09587430954  1.651736E-19
8969.48787426949  7.851262E-20
8970.87987422944  1.630039E-19
8972.27187418938  4.847346E-19
8973.66387414933  1.202711E-18
8975.05587410927  2.296690E-19
8976.44787406922  -3.405061E-19
8977.83987402916  4.424505E-19
8979.23187398911  1.044336E-18
8980.62387394906  3.487837E-18
8982.015873909  2.216824E-18
8983.40787386895  1.198653E-18
8984.79987382889  7.692253E-19
8986.19187378884  6.907663E-19
8987.58387374878  1.195524E-18
8988.97587370873  1.176568E-18
8990.36787366867  -5.259164E-19
8991.75987362862  1.172586E-18
8993.15187358856  1.841441E-18
8994.54387354851  5.142650E-19
8995.93587350846  1.597295E-19
8997.3278734684  1.556061E-18
8998.71987342835  2.108392E-18
9000.11187338829  5.056276E-19
9001.50387334824  8.294979E-19
9002.89587330819  1.309900E-18
9004.28787326813  8.667590E-19
9005.67987322808  2.244316E-19
9007.07187318802  1.726709E-18
9008.46387314797  1.992272E-18
9009.85587310791  1.421687E-18
9011.24787306786  8.911218E-19
9012.63987302781  1.595575E-18
9014.03187298775  1.310516E-18
9015.4238729477  8.891846E-19
9016.81587290764  1.411884E-18
9018.20787286759  1.075178E-18
9019.59987282753  3.080561E-18
9020.99187278748  2.576101E-18
9022.38387274743  2.299542E-18
9023.77587270737  -8.932599E-20
9025.16787266732  1.190366E-18
9026.55987262726  1.380951E-18
9027.95187258721  -8.839668E-19
9029.34387254715  -1.581974E-18
9030.7358725071  1.621283E-19
9032.12787246705  8.366904E-19
9033.51987242699  1.145169E-18
9034.91187238694  1.488592E-18
9036.30387234688  1.217046E-18
9037.69587230683  1.658916E-18
9039.08787226677  7.612692E-19
9040.47987222672  1.764348E-18
9041.87187218666  3.441348E-18
9043.26387214661  4.585845E-19
9044.65587210656  1.149831E-18
9046.0478720665  3.368086E-18
9047.43987202645  2.961590E-18
9048.83187198639  1.913693E-18
9050.22387194634  1.008723E-18
9051.61587190628  1.119412E-19
9053.00787186623  1.720054E-18
9054.39987182617  6.941699E-19
9055.79187178612  1.597649E-18
9057.18387174607  1.632449E-19
9058.57587170601  6.348156E-19
9059.96787166596  1.717524E-19
9061.3598716259  7.145505E-19
9062.75187158585  1.177667E-18
9064.1438715458  2.087542E-18
9065.53587150574  1.618846E-18
9066.92787146569  1.569449E-18
